timestamp,equity,drawdown
2019-05-06 16:00:00-04:00,50116.0,0.0
2019-05-08 20:46:00-04:00,49894.0,-222.0
2019-05-09 20:24:00-04:00,50216.0,0.0
2019-05-10 09:56:00-04:00,50024.0,-192.0
2019-05-14 16:00:00-04:00,50099.0,-117.0
2019-05-15 11:25:00-04:00,50455.0,0.0
2019-05-17 15:16:00-04:00,50246.0,-209.0
2019-05-20 16:00:00-04:00,50135.0,-320.0
2019-05-22 13:10:00-04:00,49941.5,-513.5
2019-06-04 13:04:00-04:00,50388.5,-66.5
2019-06-13 11:06:00-04:00,50172.5,-282.5
2019-06-18 16:00:00-04:00,50089.5,-365.5
2019-06-19 16:00:00-04:00,50135.5,-319.5
2019-07-10 11:18:00-04:00,49908.5,-546.5
2019-08-01 13:40:00-04:00,49776.5,-678.5
2019-08-06 10:14:00-04:00,49605.5,-849.5
2019-08-07 15:00:00-04:00,49989.5,-465.5
2019-08-08 12:33:00-04:00,50433.5,-21.5
2019-08-13 16:00:00-04:00,50600.5,0.0
2019-08-16 16:00:00-04:00,50744.5,0.0
2019-08-23 10:10:00-04:00,50540.5,-204.0
2019-08-27 10:23:00-04:00,50292.5,-452.0
2019-08-28 16:00:00-04:00,50445.5,-299.0
2019-08-29 10:37:00-04:00,50225.0,-519.5
2019-09-03 10:04:00-04:00,50045.0,-699.5
2019-09-04 10:07:00-04:00,49827.5,-917.0
2019-09-11 19:22:00-04:00,50289.5,-455.0
2019-09-12 10:51:00-04:00,50091.5,-653.0
2019-09-16 11:59:00-04:00,49890.5,-854.0
2019-09-25 14:11:00-04:00,50322.5,-422.0
2019-09-26 20:23:00-04:00,50136.5,-608.0
2019-09-30 20:44:00-04:00,50560.5,-184.0
2019-10-03 16:00:00-04:00,50823.5,0.0
2019-10-04 16:00:00-04:00,51077.0,0.0
2019-10-10 10:57:00-04:00,51513.0,0.0
2019-10-23 16:00:00-04:00,51567.0,0.0
2019-12-13 16:00:00-05:00,51552.0,-15.0
2020-01-06 20:42:00-05:00,51938.0,0.0
2020-01-27 16:00:00-05:00,51874.5,-63.5
2020-01-30 16:00:00-05:00,51947.0,0.0
2020-02-03 16:00:00-05:00,51984.5,0.0
2020-02-04 16:42:00-05:00,52344.5,0.0
2020-02-06 16:00:00-05:00,52490.5,0.0
2020-02-18 16:00:00-05:00,52563.5,0.0
2020-02-27 11:38:00-05:00,52359.0,-204.5
2020-03-04 16:00:00-05:00,52624.0,0.0
2020-03-05 12:42:00-05:00,52455.5,-168.5
2020-03-06 14:08:00-05:00,52249.0,-375.0
2020-03-10 10:46:00-04:00,52027.0,-597.0
2020-03-24 14:04:00-04:00,51798.5,-825.5
2020-03-27 15:50:00-04:00,51561.0,-1063.0
2020-03-30 20:05:00-04:00,51911.0,-713.0
2020-03-31 10:40:00-04:00,52373.0,-251.0
2020-04-01 12:27:00-04:00,52219.5,-404.5
2020-04-02 16:00:00-04:00,52395.5,-228.5
2020-04-06 15:32:00-04:00,52703.5,0.0
2020-04-08 16:00:00-04:00,52890.5,0.0
2020-04-13 21:33:00-04:00,53169.5,0.0
2020-04-14 16:00:00-04:00,53426.0,0.0
2020-04-15 16:00:00-04:00,53441.0,0.0
2020-04-16 12:31:00-04:00,53219.0,-222.0
2020-04-20 15:05:00-04:00,53092.0,-349.0
2020-04-22 16:00:00-04:00,53257.0,-184.0
2020-04-23 12:45:00-04:00,53082.5,-358.5
2020-04-24 15:50:00-04:00,53528.5,0.0
2020-04-27 10:59:00-04:00,53356.5,-172.0
2020-04-29 15:22:00-04:00,53598.5,0.0
2020-05-01 11:30:00-04:00,53463.0,-135.5
2020-05-04 11:40:00-04:00,53799.0,0.0
2020-05-05 15:37:00-04:00,53595.0,-204.0
2020-05-06 15:49:00-04:00,53459.5,-339.5
2020-05-08 16:00:00-04:00,53534.5,-264.5
2020-05-11 16:00:00-04:00,53695.0,-104.0
2020-05-13 11:38:00-04:00,53480.0,-319.0
2020-05-14 20:00:00-04:00,53751.0,-48.0
2020-05-15 16:00:00-04:00,53954.0,0.0
2020-05-18 09:54:00-04:00,53764.0,-190.0
2020-05-19 15:51:00-04:00,53516.0,-438.0
2020-05-20 16:00:00-04:00,53672.0,-282.0
2020-05-22 16:00:00-04:00,53797.0,-157.0
2020-05-28 21:15:00-04:00,53628.5,-325.5
2020-05-29 10:08:00-04:00,53409.5,-544.5
2020-06-01 16:00:00-04:00,53490.5,-463.5
2020-06-02 10:44:00-04:00,53244.5,-709.5
2020-06-03 12:09:00-04:00,53030.5,-923.5
2020-06-04 11:12:00-04:00,52844.5,-1109.5
2020-06-05 16:00:00-04:00,52929.5,-1024.5
2020-06-09 15:20:00-04:00,53337.5,-616.5
2020-06-10 10:56:00-04:00,53142.5,-811.5
2020-06-11 11:01:00-04:00,52946.5,-1007.5
2020-06-15 14:01:00-04:00,53300.5,-653.5
2020-06-16 10:41:00-04:00,53072.5,-881.5
2020-06-17 09:57:00-04:00,52901.5,-1052.5
2020-06-18 10:33:00-04:00,52714.5,-1239.5
2020-06-19 10:46:00-04:00,52468.5,-1485.5
2020-06-22 12:16:00-04:00,52918.5,-1035.5
2020-06-23 13:37:00-04:00,53262.5,-691.5
2020-06-25 16:00:00-04:00,53406.5,-547.5
2020-06-29 16:00:00-04:00,53618.5,-335.5
2020-06-30 20:00:00-04:00,53829.0,-125.0
2020-07-01 16:00:00-04:00,53951.5,-2.5
2020-07-02 10:29:00-04:00,53760.5,-193.5
2020-07-06 11:06:00-04:00,54216.5,0.0
2020-07-07 15:09:00-04:00,54086.0,-130.5
2020-07-08 11:18:00-04:00,53875.0,-341.5
2020-07-09 22:48:00-04:00,53745.0,-471.5
2020-07-13 14:03:00-04:00,53601.5,-615.0
2020-07-16 16:04:00-04:00,53452.0,-764.5
2020-07-20 13:40:00-04:00,53771.0,-445.5
2020-07-22 10:47:00-04:00,53639.5,-577.0
2020-07-23 10:12:00-04:00,53509.0,-707.5
2020-07-27 11:38:00-04:00,53299.5,-917.0
2020-07-28 15:05:00-04:00,53156.5,-1060.0
2020-07-29 16:00:00-04:00,53252.5,-964.0
2020-07-30 16:09:00-04:00,53546.5,-670.0
2020-08-03 16:00:00-04:00,53511.5,-705.0
2020-08-04 14:31:00-04:00,53321.5,-895.0
2020-08-05 16:00:00-04:00,53329.5,-887.0
2020-08-06 14:09:00-04:00,53687.5,-529.0
2020-08-07 10:21:00-04:00,53459.5,-757.0
2020-08-11 15:16:00-04:00,53271.5,-945.0
2020-08-12 12:21:00-04:00,53538.5,-678.0
2020-08-13 14:21:00-04:00,53398.5,-818.0
2020-08-17 16:00:00-04:00,53544.0,-672.5
2020-08-20 21:00:00-04:00,53878.0,-338.5
2020-08-21 15:01:00-04:00,54307.0,0.0
2020-08-25 19:49:00-04:00,54775.0,0.0
2020-08-26 11:40:00-04:00,55234.0,0.0
2020-08-27 12:38:00-04:00,55019.0,-215.0
2020-08-28 10:36:00-04:00,54807.5,-426.5
2020-08-31 13:46:00-04:00,55203.5,-30.5
2020-09-01 20:37:00-04:00,55549.5,0.0
2020-09-07 09:56:00-04:00,55357.5,-192.0
2020-09-09 16:00:00-04:00,55424.5,-125.0
2020-09-10 10:45:00-04:00,55276.5,-273.0
2020-09-14 13:32:00-04:00,55105.0,-444.5
2020-09-15 10:24:00-04:00,54905.0,-644.5
2020-09-22 16:00:00-04:00,55084.5,-465.0
2020-09-25 14:19:00-04:00,55409.5,-140.0
2020-09-28 16:00:00-04:00,55442.0,-107.5
2020-09-29 10:34:00-04:00,55205.0,-344.5
2020-09-30 14:09:00-04:00,55487.0,-62.5
2020-10-01 13:59:00-04:00,55294.0,-255.5
2020-10-02 11:53:00-04:00,55044.5,-505.0
2020-10-05 16:00:00-04:00,55425.5,-124.0
2020-10-06 10:44:00-04:00,55224.5,-325.0
2020-10-07 16:00:00-04:00,55356.5,-193.0
2020-10-09 16:01:00-04:00,55712.5,0.0
2020-10-13 13:57:00-04:00,55463.5,-249.0
2020-10-14 10:25:00-04:00,55301.5,-411.0
2020-10-15 10:43:00-04:00,55073.0,-639.5
2020-10-16 11:10:00-04:00,54882.0,-830.5
2020-10-20 11:00:00-04:00,54735.0,-977.5
2020-10-21 11:15:00-04:00,54535.5,-1177.0
2020-10-23 16:00:00-04:00,54497.0,-1215.5
2020-10-26 10:49:00-04:00,54285.5,-1427.0
2020-10-27 10:22:00-04:00,54140.0,-1572.5
2020-10-29 14:00:00-04:00,54440.0,-1272.5
2020-11-02 10:43:00-05:00,54283.0,-1429.5
2020-11-03 10:14:00-05:00,54709.0,-1003.5
2020-11-05 22:58:00-05:00,54539.5,-1173.0
2020-11-11 16:00:00-05:00,54658.0,-1054.5
2020-11-12 11:40:00-05:00,54473.0,-1239.5
2020-11-13 16:00:00-05:00,54469.0,-1243.5
2020-11-16 16:00:00-05:00,54526.5,-1186.0
2020-11-19 23:43:00-05:00,54958.5,-754.0
2020-11-23 10:06:00-05:00,54766.5,-946.0
2020-11-24 19:08:00-05:00,55098.5,-614.0
2020-11-27 13:14:00-05:00,55171.5,-541.0
2020-11-30 16:03:00-05:00,55173.5,-539.0
2020-12-01 13:48:00-05:00,55607.5,-105.0
2020-12-02 16:00:00-05:00,55731.0,0.0
2020-12-03 11:09:00-05:00,55525.0,-206.0
2020-12-04 16:00:00-05:00,55660.0,-71.0
2020-12-07 16:00:00-05:00,55677.0,-54.0
2020-12-09 10:11:00-05:00,55484.0,-247.0
2020-12-10 16:00:00-05:00,55598.5,-132.5
2020-12-11 11:36:00-05:00,55432.5,-298.5
2020-12-14 16:00:00-05:00,55366.0,-365.0
2020-12-16 16:00:00-05:00,55545.0,-186.0
2020-12-21 16:00:00-05:00,55575.5,-155.5
2020-12-22 11:01:00-05:00,55385.5,-345.5
2021-01-05 21:52:00-05:00,55164.0,-567.0
2021-01-06 16:00:00-05:00,55071.0,-660.0
2021-01-07 16:00:00-05:00,55282.0,-449.0
2021-01-08 13:22:00-05:00,55136.5,-594.5
2021-01-11 15:21:00-05:00,54939.5,-791.5
2021-01-13 16:00:00-05:00,55117.5,-613.5
2021-01-14 11:57:00-05:00,54930.5,-800.5
2021-01-20 19:57:00-05:00,55214.5,-516.5
2021-01-21 16:00:00-05:00,55306.5,-424.5
2021-01-22 10:38:00-05:00,55125.5,-605.5
2021-01-26 16:00:00-05:00,55075.5,-655.5
2021-02-01 11:01:00-05:00,54839.5,-891.5
2021-02-02 16:00:00-05:00,54881.0,-850.0
2021-02-08 11:29:00-05:00,54703.0,-1028.0
2021-02-09 16:00:00-05:00,54699.0,-1032.0
2021-02-11 10:59:00-05:00,54453.0,-1278.0
2021-02-12 16:59:00-05:00,54917.0,-814.0
2021-02-16 11:08:00-05:00,54709.0,-1022.0
2021-02-17 16:00:00-05:00,54739.5,-991.5
2021-02-18 16:00:00-05:00,54992.5,-738.5
2021-02-24 16:00:00-05:00,55336.0,-395.0
2021-02-26 14:05:00-05:00,55123.5,-607.5
2021-03-01 14:53:00-05:00,55434.5,-296.5
2021-03-09 13:02:00-05:00,55719.5,-11.5
2021-03-11 16:00:00-05:00,55790.0,0.0
2021-03-12 16:00:00-05:00,55885.5,0.0
2021-03-15 11:34:00-04:00,55743.5,-142.0
2021-03-16 14:25:00-04:00,55601.5,-284.0
2021-03-17 15:00:00-04:00,56003.5,0.0
2021-03-19 16:00:00-04:00,56002.5,-1.0
2021-03-22 12:43:00-04:00,56286.5,0.0
2021-03-23 10:34:00-04:00,56040.5,-246.0
2021-03-25 10:49:00-04:00,55802.5,-484.0
2021-03-26 14:09:00-04:00,55661.0,-625.5
2021-03-29 14:31:00-04:00,55524.5,-762.0
2021-03-30 16:00:00-04:00,55489.0,-797.5
2021-03-31 16:00:00-04:00,55626.0,-660.5
2021-04-01 16:00:00-04:00,55712.0,-574.5
2021-04-05 11:36:00-04:00,56084.0,-202.5
2021-04-06 16:00:00-04:00,56014.0,-272.5
2021-04-07 21:41:00-04:00,56414.0,0.0
2021-04-08 10:09:00-04:00,56181.5,-232.5
2021-04-09 16:00:00-04:00,56397.5,-16.5
2021-04-13 16:00:00-04:00,56455.5,0.0
2021-04-15 16:00:00-04:00,56582.5,0.0
2021-04-20 10:40:00-04:00,56455.5,-127.0
2021-04-21 16:00:00-04:00,56698.5,0.0
2021-04-22 13:07:00-04:00,56500.5,-198.0
2021-04-23 11:39:00-04:00,56886.5,0.0
2021-04-26 15:00:00-04:00,57294.5,0.0
2021-04-28 12:00:00-04:00,57049.5,-245.0
2021-04-30 13:53:00-04:00,56824.5,-470.0
2021-05-03 10:52:00-04:00,56680.5,-614.0
2021-05-06 16:00:00-04:00,56833.0,-461.5
2021-05-13 11:25:00-04:00,56692.0,-602.5
2021-05-14 13:31:00-04:00,57120.0,-174.5
2021-05-18 14:23:00-04:00,56903.0,-391.5
2021-05-20 16:00:00-04:00,57077.5,-217.0
2021-05-24 16:00:00-04:00,57171.0,-123.5
2021-05-27 14:25:00-04:00,56987.0,-307.5
2021-06-02 13:22:00-04:00,56801.0,-493.5
2021-06-03 20:09:00-04:00,56615.5,-679.0
2021-06-04 16:00:00-04:00,56758.0,-536.5
2021-06-09 09:50:00-04:00,56521.0,-773.5
2021-06-11 10:47:00-04:00,56278.0,-1016.5
2021-06-14 20:25:00-04:00,56740.0,-554.5
2021-06-15 10:25:00-04:00,56509.0,-785.5
2021-06-16 11:08:00-04:00,56306.5,-988.0
2021-06-17 21:46:00-04:00,56662.5,-632.0
2021-06-21 16:00:00-04:00,56778.5,-516.0
2021-06-22 16:00:00-04:00,56929.0,-365.5
2021-06-23 11:04:00-04:00,56705.0,-589.5
2021-06-24 13:20:00-04:00,56518.0,-776.5
2021-06-28 16:00:00-04:00,56606.5,-688.0
2021-07-01 10:20:00-04:00,56390.5,-904.0
2021-07-02 16:00:00-04:00,56572.5,-722.0
2021-07-06 10:33:00-04:00,56323.5,-971.0
2021-07-08 11:01:00-04:00,56166.0,-1128.5
2021-07-09 16:00:00-04:00,56488.0,-806.5
2021-07-13 11:20:00-04:00,56842.0,-452.5
2021-07-14 11:28:00-04:00,56609.0,-685.5
2021-07-20 16:00:00-04:00,56772.5,-522.0
2021-07-21 16:00:00-04:00,57096.5,-198.0
2021-07-22 16:00:00-04:00,57184.5,-110.0
2021-07-23 16:00:00-04:00,57379.0,0.0
2021-07-26 16:00:00-04:00,57460.0,0.0
2021-07-29 16:04:00-04:00,57262.0,-198.0
2021-07-30 16:00:00-04:00,57330.0,-130.0
2021-08-03 16:00:00-04:00,57374.0,-86.0
2021-08-05 16:00:00-04:00,57528.0,0.0
2021-08-10 10:18:00-04:00,57286.5,-241.5
2021-08-12 16:00:00-04:00,57547.5,0.0
2021-08-13 16:00:00-04:00,57679.5,0.0
2021-08-17 11:42:00-04:00,57522.0,-157.5
2021-08-18 11:36:00-04:00,57320.0,-359.5
2021-08-19 16:00:00-04:00,57491.5,-188.0
2021-08-20 15:57:00-04:00,57857.5,0.0
2021-08-23 16:00:00-04:00,58086.0,0.0
2021-08-24 16:00:00-04:00,58093.0,0.0
2021-08-26 10:23:00-04:00,57871.0,-222.0
2021-08-27 16:00:00-04:00,57991.5,-101.5
2021-08-30 16:00:00-04:00,58141.0,0.0
2021-09-01 15:43:00-04:00,57921.0,-220.0
2021-09-03 16:00:00-04:00,57974.5,-166.5
2021-09-09 11:26:00-04:00,57758.5,-382.5
2021-09-21 10:06:00-04:00,57585.0,-556.0
2021-09-22 14:14:00-04:00,57836.0,-305.0
2021-09-23 16:00:00-04:00,57903.5,-237.5
2021-09-24 16:00:00-04:00,58187.5,0.0
2021-09-29 11:35:00-04:00,58019.0,-168.5
2021-09-30 10:07:00-04:00,57880.0,-307.5
2021-10-01 16:00:00-04:00,57939.5,-248.0
2021-10-05 13:40:00-04:00,58253.5,0.0
2021-10-07 16:00:00-04:00,58109.0,-144.5
2021-10-11 15:51:00-04:00,57874.0,-379.5
2021-10-13 16:00:00-04:00,57836.5,-417.0
2021-10-14 19:22:00-04:00,58081.5,-172.0
2021-10-15 16:00:00-04:00,58208.5,-45.0
2021-10-18 14:57:00-04:00,58499.5,0.0
2021-10-19 16:00:00-04:00,58729.5,0.0
2021-10-20 11:02:00-04:00,58504.5,-225.0
2021-10-21 16:00:00-04:00,58853.5,0.0
2021-10-22 10:50:00-04:00,58611.5,-242.0
2021-10-26 12:00:00-04:00,58435.5,-418.0
2021-10-27 16:00:00-04:00,58361.0,-492.5
2021-10-28 16:31:00-04:00,58129.0,-724.5
2021-10-29 15:52:00-04:00,58407.0,-446.5
2021-11-02 16:00:00-04:00,58411.5,-442.0
2021-11-03 15:46:00-04:00,58660.5,-193.0
2021-11-04 10:32:00-04:00,59072.5,0.0
2021-11-10 13:15:00-05:00,58871.5,-201.0
2021-11-12 16:00:00-05:00,59083.0,0.0
2021-11-16 16:00:00-05:00,59160.0,0.0
2021-11-17 11:57:00-05:00,59529.0,0.0
2021-11-18 10:10:00-05:00,59399.5,-129.5
2021-11-19 16:00:00-05:00,59388.5,-140.5
2021-11-22 11:12:00-05:00,59200.0,-329.0
2021-11-23 10:09:00-05:00,58979.5,-549.5
2021-11-24 16:00:00-05:00,59223.5,-305.5
2021-11-29 15:16:00-05:00,59522.5,-6.5
2021-11-30 10:46:00-05:00,59293.5,-235.5
2021-12-01 12:55:00-05:00,59115.5,-413.5
2021-12-07 11:37:00-05:00,59368.5,-160.5
2021-12-08 16:00:00-05:00,59424.5,-104.5
2021-12-20 16:00:00-05:00,59359.0,-170.0
2021-12-21 16:00:00-05:00,59671.0,0.0
2021-12-22 18:00:00-05:00,60005.0,0.0
2021-12-23 16:00:00-05:00,60113.0,0.0
2021-12-27 16:00:00-05:00,60331.0,0.0
2021-12-30 15:45:00-05:00,60175.5,-155.5
2022-01-03 16:00:00-05:00,60165.0,-166.0
2022-01-12 10:39:00-05:00,59948.5,-382.5
2022-01-20 14:12:00-05:00,59747.5,-583.5
2022-02-08 18:28:00-05:00,60122.5,-208.5
2022-02-09 16:00:00-05:00,60267.5,-63.5
2022-02-15 12:47:00-05:00,60104.5,-226.5
2022-03-01 10:45:00-05:00,59884.0,-447.0
2022-03-10 21:50:00-05:00,59658.5,-672.5
2022-03-23 14:15:00-04:00,59469.0,-862.0
2022-03-24 15:25:00-04:00,59804.0,-527.0
2022-03-25 11:01:00-04:00,59642.5,-688.5
2022-03-29 16:00:00-04:00,59669.0,-662.0
2022-03-30 11:04:00-04:00,59429.0,-902.0
2022-04-04 16:00:00-04:00,59743.5,-587.5
2022-04-08 14:25:00-04:00,59507.5,-823.5
2022-05-04 14:00:00-04:00,59381.0,-950.0
2022-05-17 16:00:00-04:00,59410.0,-921.0
2022-05-27 16:00:00-04:00,59727.5,-603.5
2022-06-01 10:06:00-04:00,59554.0,-777.0
2022-06-06 11:13:00-04:00,59346.5,-984.5
2022-06-08 12:39:00-04:00,59141.5,-1189.5
2022-06-15 14:04:00-04:00,58960.5,-1370.5
2022-06-20 20:57:00-04:00,59404.5,-926.5
2022-07-06 16:00:00-04:00,59403.0,-928.0
2022-07-07 16:00:00-04:00,59621.0,-710.0
2022-07-08 16:00:00-04:00,59751.5,-579.5
2022-07-15 16:00:00-04:00,59785.5,-545.5
2022-07-19 13:49:00-04:00,60114.5,-216.5
2022-07-20 11:35:00-04:00,60424.5,0.0
2022-07-22 10:00:00-04:00,60236.5,-188.0
2022-07-26 18:10:00-04:00,60248.5,-176.0
2022-07-27 14:44:00-04:00,60647.5,0.0
2022-08-03 16:00:00-04:00,60970.0,0.0
2022-08-04 10:17:00-04:00,60788.5,-181.5
2022-08-05 11:26:00-04:00,60560.0,-410.0
2022-08-10 16:00:00-04:00,60621.5,-348.5
2022-08-11 11:05:00-04:00,60490.5,-479.5
2022-08-15 16:00:00-04:00,60616.0,-354.0
2022-08-16 14:45:00-04:00,60389.0,-581.0
2022-08-18 16:00:00-04:00,60410.0,-560.0
2022-08-23 18:00:00-04:00,60194.0,-776.0
2022-08-24 16:00:00-04:00,60228.0,-742.0
2022-08-25 10:42:00-04:00,60620.0,-350.0
2022-09-01 16:00:00-04:00,60730.0,-240.0
2022-09-07 10:15:00-04:00,60544.5,-425.5
2022-09-09 16:00:00-04:00,60751.0,-219.0
2022-09-12 12:10:00-04:00,60617.5,-352.5
2022-09-14 10:30:00-04:00,60418.5,-551.5
2022-09-15 10:29:00-04:00,60229.5,-740.5
2022-09-16 11:38:00-04:00,60067.5,-902.5
2022-09-19 16:00:00-04:00,60304.0,-666.0
2022-09-20 13:29:00-04:00,60156.5,-813.5
2022-09-21 13:59:00-04:00,60480.5,-489.5
2022-10-03 14:28:00-04:00,60859.5,-110.5
2022-10-04 16:00:00-04:00,60972.5,0.0
2022-10-05 20:12:00-04:00,61305.5,0.0
2022-10-11 14:52:00-04:00,61121.5,-184.0
2022-10-19 12:46:00-04:00,60885.5,-420.0
2022-10-25 15:30:00-04:00,61156.5,-149.0
2022-10-26 16:08:00-04:00,60962.0,-343.5
2022-11-02 14:36:00-04:00,60791.0,-514.5
2022-11-03 11:29:00-04:00,60625.5,-680.0
2022-11-07 16:00:00-05:00,60697.0,-608.5
2022-11-08 14:10:00-05:00,60548.5,-757.0
2022-11-11 16:00:00-05:00,60859.0,-446.5
2022-11-14 16:00:00-05:00,60787.5,-518.0
2022-11-17 16:00:00-05:00,60896.0,-409.5
2022-11-21 10:06:00-05:00,60757.5,-548.0
2022-11-22 16:00:00-05:00,60975.5,-330.0
2022-11-23 12:57:00-05:00,60735.5,-570.0
2022-11-28 10:25:00-05:00,60551.0,-754.5
2022-11-29 11:02:00-05:00,60343.0,-962.5
2022-11-30 14:11:00-05:00,60764.0,-541.5
2022-12-01 10:12:00-05:00,60601.0,-704.5
2022-12-02 16:00:00-05:00,60755.5,-550.0
2022-12-08 16:00:00-05:00,60888.0,-417.5
2022-12-09 16:00:00-05:00,60727.5,-578.0
2022-12-12 10:49:00-05:00,60496.5,-809.0
2022-12-14 14:00:00-05:00,60342.0,-963.5
2022-12-16 10:06:00-05:00,60176.5,-1129.0
2022-12-20 16:00:00-05:00,60226.5,-1079.0
2022-12-21 11:10:00-05:00,60484.5,-821.0
2022-12-29 16:00:00-05:00,60609.0,-696.5
2022-12-30 13:25:00-05:00,60467.5,-838.0
2023-01-04 14:02:00-05:00,60287.5,-1018.0
2023-01-09 11:14:00-05:00,60769.5,-536.0
2023-01-11 16:00:00-05:00,60984.5,-321.0
2023-01-13 15:35:00-05:00,61232.5,-73.0
2023-01-17 16:00:00-05:00,61226.5,-79.0
2023-01-18 10:37:00-05:00,61094.0,-211.5
2023-01-19 15:46:00-05:00,60967.5,-338.0
2023-01-20 13:50:00-05:00,61249.5,-56.0
2023-01-23 11:06:00-05:00,61574.5,0.0
2023-01-24 10:06:00-05:00,61424.5,-150.0
2023-01-25 14:17:00-05:00,61707.5,0.0
2023-01-26 16:00:00-05:00,61749.0,0.0
2023-01-27 13:38:00-05:00,62023.0,0.0
2023-01-30 10:23:00-05:00,61894.0,-129.0
2023-01-31 16:00:00-05:00,62098.5,0.0
2023-02-02 13:34:00-05:00,62373.5,0.0
2023-02-06 10:20:00-05:00,62231.5,-142.0
2023-02-07 12:46:00-05:00,62705.5,0.0
2023-02-13 16:00:00-05:00,62924.5,0.0
2023-02-15 09:54:00-05:00,62769.0,-155.5
2023-02-22 10:00:00-05:00,62543.0,-381.5
2023-02-27 10:36:00-05:00,62307.5,-617.0
2023-02-28 16:03:00-05:00,62171.0,-753.5
2023-03-01 10:05:00-05:00,62025.0,-899.5
2023-03-02 13:36:00-05:00,62469.0,-455.5
2023-03-03 12:55:00-05:00,62849.0,-75.5
2023-03-06 14:21:00-05:00,62650.0,-274.5
2023-03-08 13:28:00-05:00,62521.5,-403.0
2023-03-09 12:48:00-05:00,62372.0,-552.5
2023-03-14 14:08:00-04:00,62184.5,-740.0
2023-03-15 12:57:00-04:00,62000.5,-924.0
2023-03-16 11:26:00-04:00,62361.5,-563.0
2023-03-17 10:26:00-04:00,62195.5,-729.0
2023-03-20 16:00:00-04:00,62297.0,-627.5
2023-03-21 10:06:00-04:00,62091.0,-833.5
2023-03-22 14:00:00-04:00,62514.0,-410.5
2023-03-23 14:25:00-04:00,62387.0,-537.5
2023-03-24 16:00:00-04:00,62486.5,-438.0
2023-03-27 10:30:00-04:00,62353.0,-571.5
2023-03-29 10:34:00-04:00,62182.0,-742.5
2023-03-30 10:12:00-04:00,62002.0,-922.5
2023-03-31 15:08:00-04:00,62257.0,-667.5
2023-04-03 10:51:00-04:00,62010.0,-914.5
2023-04-04 11:09:00-04:00,61842.5,-1082.0
2023-04-06 12:00:00-04:00,62310.5,-614.0
2023-04-10 16:00:00-04:00,62513.0,-411.5
2023-04-13 14:14:00-04:00,62759.0,-165.5
2023-04-14 10:29:00-04:00,62576.5,-348.0
2023-04-18 09:58:00-04:00,62330.5,-594.0
2023-04-19 16:00:00-04:00,62486.5,-438.0
2023-04-20 15:16:00-04:00,62347.0,-577.5
2023-04-21 10:41:00-04:00,62107.0,-817.5
2023-04-26 10:22:00-04:00,61977.0,-947.5
2023-04-27 11:25:00-04:00,62299.0,-625.5
2023-04-28 16:00:00-04:00,62457.0,-467.5
2023-05-01 10:01:00-04:00,62250.0,-674.5
2023-05-03 11:02:00-04:00,62074.0,-850.5
2023-05-04 12:07:00-04:00,61845.0,-1079.5
2023-05-05 13:22:00-04:00,62271.0,-653.5
2023-05-09 10:29:00-04:00,62037.0,-887.5
2023-05-10 10:46:00-04:00,61833.0,-1091.5
2023-05-11 16:00:00-04:00,61865.0,-1059.5
2023-05-15 09:51:00-04:00,61659.5,-1265.0
2023-05-16 16:00:00-04:00,61612.5,-1312.0
2023-05-18 11:46:00-04:00,61863.5,-1061.0
2023-05-22 16:00:00-04:00,61821.5,-1103.0
2023-05-24 16:23:00-04:00,62257.5,-667.0
2023-05-25 16:00:00-04:00,62278.5,-646.0
2023-05-26 10:43:00-04:00,62590.5,-334.0
2023-05-31 10:14:00-04:00,62434.0,-490.5
2023-06-01 12:19:00-04:00,62699.0,-225.5
2023-06-05 14:33:00-04:00,62524.5,-400.0
2023-06-06 16:00:00-04:00,62554.0,-370.5
2023-06-08 16:00:00-04:00,62735.0,-189.5
2023-06-09 11:28:00-04:00,62577.0,-347.5
2023-06-12 14:35:00-04:00,63039.0,0.0
2023-06-14 11:27:00-04:00,63461.0,0.0
2023-06-15 14:35:00-04:00,63799.0,0.0
2023-06-20 10:15:00-04:00,63590.0,-209.0
2023-06-22 16:36:00-04:00,63940.0,0.0
2023-06-23 16:00:00-04:00,63861.0,-79.0
2023-06-26 11:06:00-04:00,63721.0,-219.0
2023-06-27 16:00:00-04:00,63960.0,0.0
2023-06-28 16:00:00-04:00,64068.5,0.0
2023-06-30 16:00:00-04:00,64073.0,0.0
2023-07-03 10:32:00-04:00,63828.5,-244.5
2023-07-05 16:00:00-04:00,63771.0,-302.0
2023-07-07 10:34:00-04:00,63645.0,-428.0
2023-07-11 16:00:00-04:00,63671.0,-402.0
2023-07-12 11:39:00-04:00,63458.0,-615.0
2023-07-13 16:00:00-04:00,63635.5,-437.5
2023-07-14 14:25:00-04:00,63461.0,-612.0
2023-07-17 16:00:00-04:00,63633.0,-440.0
2023-07-18 13:41:00-04:00,63896.0,-177.0
2023-07-19 10:55:00-04:00,63768.0,-305.0
2023-07-25 16:00:00-04:00,63769.0,-304.0
2023-07-26 15:08:00-04:00,63577.0,-496.0
2023-07-27 10:24:00-04:00,63416.0,-657.0
2023-07-28 16:00:00-04:00,63488.0,-585.0
2023-07-31 09:55:00-04:00,63245.0,-828.0
2023-08-01 10:14:00-04:00,63064.0,-1009.0
2023-08-03 16:00:00-04:00,63052.5,-1020.5
2023-08-04 14:01:00-04:00,62865.0,-1208.0
2023-08-07 16:00:00-04:00,62874.0,-1199.0
2023-08-10 11:20:00-04:00,62673.5,-1399.5
2023-08-11 11:25:00-04:00,62491.0,-1582.0
2023-08-14 15:59:00-04:00,62796.0,-1277.0
2023-08-16 11:50:00-04:00,62549.0,-1524.0
2023-08-18 16:00:00-04:00,62699.5,-1373.5
2023-08-21 11:10:00-04:00,62514.0,-1559.0
2023-08-23 10:23:00-04:00,62880.0,-1193.0
2023-08-25 10:08:00-04:00,62752.5,-1320.5
2023-08-29 11:19:00-04:00,63125.5,-947.5
2023-08-30 10:26:00-04:00,62967.0,-1106.0
2023-08-31 16:00:00-04:00,62936.0,-1137.0
2023-09-05 16:00:00-04:00,62987.5,-1085.5
2023-09-06 10:00:00-04:00,62788.5,-1284.5
2023-09-07 16:00:00-04:00,62814.5,-1258.5
2023-09-08 14:59:00-04:00,62627.0,-1446.0
2023-09-12 10:27:00-04:00,62495.5,-1577.5
2023-09-13 16:00:00-04:00,62497.5,-1575.5
2023-09-14 16:00:00-04:00,62561.0,-1512.0
2023-09-18 16:00:00-04:00,62523.5,-1549.5
2023-09-19 16:00:00-04:00,62557.5,-1515.5
2023-09-20 10:14:00-04:00,62313.5,-1759.5
2023-09-22 14:12:00-04:00,62087.5,-1985.5
2023-09-25 16:00:00-04:00,62233.5,-1839.5
2023-09-27 10:01:00-04:00,62038.5,-2034.5
2023-09-28 11:48:00-04:00,62341.5,-1731.5
2023-09-29 10:24:00-04:00,62126.5,-1946.5
2023-10-03 10:02:00-04:00,61989.5,-2083.5
2023-10-04 16:00:00-04:00,62110.5,-1962.5
2023-10-06 11:43:00-04:00,62527.5,-1545.5
2023-10-09 20:29:00-04:00,62878.5,-1194.5
2023-10-10 11:07:00-04:00,63278.5,-794.5
2023-10-11 16:02:00-04:00,63280.5,-792.5
2023-10-12 13:08:00-04:00,63041.5,-1031.5
2023-10-16 16:00:00-04:00,63087.5,-985.5
2023-10-17 16:00:00-04:00,63201.5,-871.5
2023-10-18 10:35:00-04:00,63047.5,-1025.5
2023-10-19 12:31:00-04:00,62858.5,-1214.5
2023-10-23 16:00:00-04:00,63032.0,-1041.0
2023-10-24 12:21:00-04:00,62876.0,-1197.0
2023-10-27 10:09:00-04:00,62670.0,-1403.0
2023-10-30 10:28:00-04:00,62440.5,-1632.5
2023-10-31 16:00:00-04:00,62528.5,-1544.5
2023-11-01 15:00:00-04:00,62984.5,-1088.5
2023-11-02 16:00:00-04:00,63142.5,-930.5
2023-11-03 16:00:00-04:00,63291.5,-781.5
2023-11-07 16:00:00-05:00,63456.0,-617.0
2023-11-09 10:07:00-05:00,63218.0,-855.0
2023-11-10 13:25:00-05:00,63528.0,-545.0
2023-11-13 16:00:00-05:00,63549.0,-524.0
2023-11-14 16:00:00-05:00,63622.5,-450.5
2023-11-16 10:41:00-05:00,63415.5,-657.5
2023-11-17 16:00:00-05:00,63484.5,-588.5
2023-11-20 16:00:00-05:00,63679.5,-393.5
2023-11-27 16:00:00-05:00,63605.0,-468.0
2023-11-28 16:00:00-05:00,63748.0,-325.0
2023-12-01 10:26:00-05:00,63611.5,-461.5
2023-12-04 21:10:00-05:00,63401.5,-671.5
2023-12-05 16:00:00-05:00,63518.5,-554.5
2023-12-07 16:00:00-05:00,63596.0,-477.0
2023-12-08 16:00:00-05:00,63722.5,-350.5
2023-12-11 16:00:00-05:00,63879.0,-194.0
2023-12-12 18:09:00-05:00,64161.0,0.0
2023-12-13 14:42:00-05:00,64585.0,0.0
2023-12-14 10:05:00-05:00,64368.0,-217.0
2023-12-15 13:41:00-05:00,64231.0,-354.0
2023-12-18 16:00:00-05:00,64412.0,-173.0
2023-12-19 16:00:00-05:00,64523.0,-62.0
2023-12-21 22:42:00-05:00,64274.0,-311.0
2023-12-22 11:00:00-05:00,64061.0,-524.0
2023-12-29 10:34:00-05:00,63854.0,-731.0
2024-01-04 15:55:00-05:00,63722.0,-863.0
2024-01-05 13:16:00-05:00,63595.5,-989.5
2024-01-08 14:11:00-05:00,63920.5,-664.5
2024-01-09 12:53:00-05:00,64398.5,-186.5
2024-01-10 14:13:00-05:00,64845.5,0.0
2024-01-12 10:00:00-05:00,64709.0,-136.5
2024-01-16 14:19:00-05:00,64551.5,-294.0
2024-01-18 12:13:00-05:00,64417.0,-428.5
2024-01-19 12:31:00-05:00,64767.0,-78.5
2024-01-24 14:23:00-05:00,64631.0,-214.5
2024-01-25 12:08:00-05:00,64405.0,-440.5
2024-01-26 12:49:00-05:00,64195.0,-650.5
2024-02-01 10:54:00-05:00,63992.0,-853.5
2024-02-07 16:00:00-05:00,64057.5,-788.0
2024-02-08 16:00:00-05:00,64069.5,-776.0
2024-02-09 10:35:00-05:00,64510.5,-335.0
2024-02-14 11:00:00-05:00,64340.5,-505.0
2024-02-15 16:00:00-05:00,64353.0,-492.5
2024-02-21 10:31:00-05:00,64214.5,-631.0
2024-02-22 14:14:00-05:00,64483.5,-362.0
2024-02-27 12:54:00-05:00,64298.5,-547.0
2024-02-28 12:39:00-05:00,64086.5,-759.0
2024-02-29 16:00:00-05:00,64045.5,-800.0
2024-03-01 12:19:00-05:00,64479.5,-366.0
2024-03-04 15:36:00-05:00,64254.5,-591.0
2024-03-06 13:33:00-05:00,64013.5,-832.0
2024-03-07 16:16:00-05:00,63875.5,-970.0
2024-03-08 11:08:00-05:00,63738.0,-1107.5
2024-03-11 16:00:00-04:00,63677.0,-1168.5
2024-03-18 11:53:00-04:00,63524.0,-1321.5
2024-03-19 16:00:00-04:00,63752.5,-1093.0
2024-03-20 19:07:00-04:00,64173.5,-672.0
2024-03-22 10:40:00-04:00,63988.5,-857.0
2024-03-25 16:00:00-04:00,64005.5,-840.0
2024-03-26 10:29:00-04:00,63783.5,-1062.0
2024-03-28 13:17:00-04:00,63541.5,-1304.0
2024-04-02 16:00:00-04:00,63594.5,-1251.0
2024-04-03 19:31:00-04:00,63918.5,-927.0
2024-04-05 11:55:00-04:00,64251.5,-594.0
2024-04-08 16:00:00-04:00,64174.5,-671.0
2024-04-11 13:19:00-04:00,64426.5,-419.0
2024-04-16 10:37:00-04:00,64298.5,-547.0
2024-04-19 09:52:00-04:00,64141.5,-704.0
2024-04-22 10:09:00-04:00,63896.5,-949.0
2024-04-23 20:38:00-04:00,64300.5,-545.0
2024-04-24 09:56:00-04:00,64147.5,-698.0
2024-04-25 15:24:00-04:00,64541.5,-304.0
2024-04-26 16:00:00-04:00,64664.0,-181.5
2024-05-01 14:32:00-04:00,64537.0,-308.5
2024-05-02 18:16:00-04:00,64893.0,0.0
2024-05-03 10:13:00-04:00,64747.0,-146.0
2024-05-06 16:00:00-04:00,65110.0,0.0
2024-05-07 13:50:00-04:00,64942.0,-168.0
2024-05-08 16:00:00-04:00,64988.5,-121.5
2024-05-09 16:00:00-04:00,64999.0,-111.0
2024-05-10 10:19:00-04:00,64829.5,-280.5
2024-05-14 15:54:00-04:00,65273.5,0.0
2024-05-15 12:32:00-04:00,65603.5,0.0
2024-05-16 13:25:00-04:00,65393.5,-210.0
2024-05-17 11:04:00-04:00,65188.0,-415.5
2024-05-20 16:00:00-04:00,65303.5,-300.0
2024-05-21 15:55:00-04:00,65629.5,0.0
2024-05-22 13:37:00-04:00,65380.5,-249.0
2024-05-24 09:54:00-04:00,65182.5,-447.0
2024-05-29 16:46:00-04:00,65033.5,-596.0
2024-06-04 10:14:00-04:00,64873.0,-756.5
2024-06-05 10:00:00-04:00,64691.0,-938.5
2024-06-07 16:00:00-04:00,64650.0,-979.5
2024-06-10 16:00:00-04:00,64929.0,-700.5
2024-06-11 14:04:00-04:00,65267.0,-362.5
2024-06-12 16:00:00-04:00,65271.0,-358.5
2024-06-14 16:00:00-04:00,65560.0,-69.5
2024-06-17 12:29:00-04:00,65948.0,0.0
2024-06-21 13:19:00-04:00,65700.0,-248.0
2024-06-24 10:29:00-04:00,65497.0,-451.0
2024-06-25 11:55:00-04:00,65933.0,-15.0
2024-06-26 11:11:00-04:00,65686.0,-262.0
2024-06-27 11:28:00-04:00,65439.5,-508.5
2024-06-28 10:14:00-04:00,65727.5,-220.5
2024-07-01 16:00:00-04:00,65845.5,-102.5
2024-07-02 16:00:00-04:00,66149.0,0.0
2024-07-03 11:55:00-04:00,66563.0,0.0
2024-07-05 13:39:00-04:00,66811.0,0.0
2024-07-08 10:01:00-04:00,66620.0,-191.0
2024-07-10 11:00:00-04:00,66400.0,-411.0
2024-07-12 10:36:00-04:00,66862.0,0.0
2024-07-15 13:01:00-04:00,66712.0,-150.0
2024-07-22 11:16:00-04:00,66477.0,-385.0
2024-07-23 10:51:00-04:00,66254.5,-607.5
2024-08-12 16:00:00-04:00,66211.0,-651.0
2024-08-13 13:01:00-04:00,66559.0,-303.0
2024-08-15 12:17:00-04:00,66851.0,-11.0
2024-08-16 16:00:00-04:00,66943.0,0.0
2024-08-19 10:19:00-04:00,66782.5,-160.5
2024-08-20 10:17:00-04:00,66647.5,-295.5
2024-08-21 10:41:00-04:00,67029.5,0.0
2024-08-23 10:48:00-04:00,66801.5,-228.0
2024-09-09 10:30:00-04:00,66621.5,-408.0
2024-09-10 16:00:00-04:00,66660.5,-369.0
2024-09-11 14:29:00-04:00,67081.5,0.0
2024-09-13 16:00:00-04:00,67108.5,0.0
2024-09-17 10:59:00-04:00,66937.5,-171.0
2024-09-19 16:00:00-04:00,66934.0,-174.5
2024-09-23 13:01:00-04:00,66792.5,-316.0
2024-09-24 16:00:00-04:00,66808.0,-300.5
2024-09-25 13:00:00-04:00,66638.5,-470.0
2024-09-30 16:00:00-04:00,66581.0,-527.5
2024-10-03 13:00:00-04:00,66342.5,-766.0
2024-10-04 16:00:00-04:00,66271.5,-837.0
2024-10-07 14:04:00-04:00,66144.0,-964.5
2024-10-08 10:35:00-04:00,66528.0,-580.5
2024-10-09 11:50:00-04:00,66782.0,-326.5
2024-10-10 16:00:00-04:00,66898.0,-210.5
2024-10-11 16:00:00-04:00,67014.5,-94.0
2024-10-14 11:01:00-04:00,66861.0,-247.5
2024-10-16 16:00:00-04:00,66814.5,-294.0
2024-10-18 16:00:00-04:00,66766.0,-342.5
2024-10-21 10:40:00-04:00,66626.5,-482.0
2024-10-22 16:00:00-04:00,66732.5,-376.0
2024-10-24 16:00:00-04:00,66752.0,-356.5
2024-10-25 13:44:00-04:00,66542.0,-566.5
2024-10-29 15:22:00-04:00,66940.0,-168.5
2024-11-01 16:00:00-04:00,66926.5,-182.0
2024-11-05 21:19:00-05:00,67336.5,0.0
2024-11-07 16:00:00-05:00,67583.5,0.0
2024-11-08 16:00:00-05:00,67603.5,0.0
2024-11-12 10:08:00-05:00,67470.0,-133.5
2024-11-13 15:54:00-05:00,67271.0,-332.5
2024-11-18 11:39:00-05:00,67538.0,-65.5
2024-11-19 13:56:00-05:00,67915.0,0.0
2024-11-20 16:20:00-05:00,67665.0,-250.0
2024-11-22 10:10:00-05:00,67473.0,-442.0
2024-11-26 10:00:00-05:00,67334.0,-581.0
2024-11-29 13:14:00-05:00,67554.5,-360.5
2024-12-02 16:00:00-05:00,67699.0,-216.0
2024-12-03 21:59:00-05:00,67969.0,0.0
2024-12-04 15:50:00-05:00,68385.0,0.0
2024-12-06 16:00:00-05:00,68552.5,0.0
2024-12-09 10:26:00-05:00,68424.0,-128.5
2024-12-10 10:58:00-05:00,68257.0,-295.5
2024-12-11 15:17:00-05:00,68581.0,0.0
2024-12-12 15:13:00-05:00,68401.0,-180.0
2024-12-13 10:40:00-05:00,68173.0,-408.0
2024-12-16 12:40:00-05:00,68421.0,-160.0
2024-12-17 14:32:00-05:00,68244.0,-337.0
2024-12-18 14:01:00-05:00,68051.0,-530.0
2024-12-23 16:00:00-05:00,68218.5,-362.5
2024-12-24 12:59:00-05:00,68527.5,-53.5
2024-12-26 19:20:00-05:00,68301.5,-279.5
2025-01-22 16:00:00-05:00,68324.5,-256.5
2025-01-23 15:58:00-05:00,68762.5,0.0
2025-01-24 10:16:00-05:00,68538.5,-224.0
2025-01-30 10:02:00-05:00,68384.5,-378.0
2025-01-31 13:34:00-05:00,68228.5,-534.0
2025-02-05 10:03:00-05:00,68083.5,-679.0
2025-02-06 14:33:00-05:00,67939.0,-823.5
2025-02-10 16:00:00-05:00,67994.0,-768.5
2025-02-11 16:00:00-05:00,67933.5,-829.0
2025-02-13 16:00:00-05:00,68213.0,-549.5
2025-02-14 16:00:00-05:00,68386.0,-376.5
2025-02-19 20:42:00-05:00,68177.0,-585.5
2025-03-25 16:00:00-04:00,68305.0,-457.5
2025-05-01 15:56:00-04:00,68089.5,-673.0
2025-05-05 20:24:00-04:00,67924.0,-838.5
2025-05-06 18:01:00-04:00,68278.0,-484.5
2025-05-07 10:54:00-04:00,68057.0,-705.5
2025-05-08 20:28:00-04:00,67860.0,-902.5
2025-05-13 12:35:00-04:00,68314.0,-448.5
2025-05-14 13:21:00-04:00,68118.5,-644.0
2025-05-15 13:18:00-04:00,68429.5,-333.0
2025-05-16 16:54:00-04:00,68261.5,-501.0
2025-05-20 11:00:00-04:00,68048.5,-714.0
2025-05-21 13:24:00-04:00,67850.0,-912.5
2025-05-27 13:48:00-04:00,68217.0,-545.5
2025-05-28 19:15:00-04:00,68555.0,-207.5
2025-05-30 11:41:00-04:00,68349.5,-413.0
2025-06-03 16:00:00-04:00,68511.0,-251.5
2025-06-06 10:32:00-04:00,68326.5,-436.0
2025-06-09 21:30:00-04:00,68588.5,-174.0
2025-06-10 11:32:00-04:00,68442.0,-320.5
2025-06-11 12:07:00-04:00,68306.0,-456.5
2025-06-12 19:59:00-04:00,68160.5,-602.0
2025-06-16 19:59:00-04:00,67983.5,-779.0
2025-06-17 12:59:00-04:00,67812.5,-950.0
2025-06-18 14:57:00-04:00,67656.0,-1106.5
2025-06-19 18:01:00-04:00,67684.5,-1078.0
2025-06-24 16:00:00-04:00,67820.0,-942.5
2025-06-26 16:00:00-04:00,67980.0,-782.5
2025-06-27 14:19:00-04:00,67852.0,-910.5
2025-06-30 16:00:00-04:00,67857.5,-905.0
2025-07-01 10:22:00-04:00,67724.5,-1038.0
2025-07-02 21:25:00-04:00,68006.5,-756.0
2025-07-03 18:00:00-04:00,68090.5,-672.0
2025-07-08 12:35:00-04:00,67850.5,-912.0
2025-07-09 10:36:00-04:00,67653.0,-1109.5
2025-07-11 16:00:00-04:00,67631.5,-1131.0
2025-07-16 16:00:00-04:00,67570.5,-1192.0
2025-07-17 14:00:00-04:00,67851.5,-911.0
2025-07-21 16:00:00-04:00,67801.5,-961.0
2025-07-23 16:00:00-04:00,67875.5,-887.0
2025-07-25 16:00:00-04:00,68012.5,-750.0
2025-07-28 11:19:00-04:00,67791.5,-971.0
2025-07-30 14:56:00-04:00,67648.0,-1114.5
2025-08-05 10:17:00-04:00,67492.0,-1270.5
2025-08-06 14:08:00-04:00,67839.0,-923.5
2025-08-07 10:10:00-04:00,67700.0,-1062.5
2025-08-08 16:00:00-04:00,67887.0,-875.5
2025-08-11 14:04:00-04:00,67645.0,-1117.5
2025-08-12 16:00:00-04:00,67890.0,-872.5
2025-08-14 16:00:00-04:00,67864.5,-898.0
2025-08-18 10:30:00-04:00,67649.5,-1113.0
2025-08-21 11:55:00-04:00,67452.5,-1310.0
2025-08-25 20:03:00-04:00,67300.0,-1462.5
2025-08-26 16:00:00-04:00,67573.0,-1189.5
2025-08-27 16:20:00-04:00,67995.0,-767.5
2025-08-28 16:00:00-04:00,68004.5,-758.0
2025-09-01 19:20:00-04:00,67827.5,-935.0
2025-09-03 13:45:00-04:00,67650.0,-1112.5
2025-09-04 23:58:00-04:00,68028.0,-734.5
2025-09-08 13:52:00-04:00,67867.5,-895.0
2025-09-11 16:00:00-04:00,67880.5,-882.0
2025-09-12 16:00:00-04:00,67937.0,-825.5
2025-09-15 22:31:00-04:00,68391.0,-371.5
2025-09-18 16:00:00-04:00,68357.5,-405.0
2025-09-19 10:47:00-04:00,68124.5,-638.0
2025-09-22 12:11:00-04:00,68482.5,-280.0
2025-09-29 11:36:00-04:00,68316.5,-446.0
2025-09-30 13:24:00-04:00,68129.5,-633.0
2025-10-01 20:45:00-04:00,68537.5,-225.0
2025-10-06 16:00:00-04:00,68447.0,-315.5
2025-10-08 15:51:00-04:00,68780.0,0.0
2025-10-10 10:57:00-04:00,68594.0,-186.0
2025-10-20 16:00:00-04:00,68734.0,-46.0
2025-10-21 16:03:00-04:00,68573.0,-207.0
2025-10-22 10:27:00-04:00,68367.5,-412.5
2025-10-23 16:00:00-04:00,68632.0,-148.0
2025-10-24 16:00:00-04:00,68574.5,-205.5
2025-10-27 16:44:00-04:00,68872.5,0.0
2025-10-28 16:00:00-04:00,68943.5,0.0
2025-10-29 10:50:00-04:00,68765.5,-178.0
2025-11-10 10:59:00-05:00,68526.5,-417.0
2025-11-11 16:00:00-05:00,68540.0,-403.5
2025-11-28 13:14:00-05:00,68655.5,-288.0
2025-12-09 16:00:00-05:00,68706.5,-237.0
2025-12-10 10:40:00-05:00,68504.5,-439.0
2025-12-11 16:53:00-05:00,68897.5,-46.0
2025-12-23 10:03:00-05:00,68691.0,-252.5
2025-12-24 13:14:00-05:00,68813.0,-130.5
2025-12-30 15:59:00-05:00,68686.5,-257.0
2026-01-07 22:46:00-05:00,68484.0,-459.5
2026-01-19 18:00:00-05:00,68581.5,-362.0
2026-01-23 16:00:00-05:00,68699.0,-244.5
2026-01-27 16:00:00-05:00,68783.0,-160.5
2026-02-16 20:52:00-05:00,68642.5,-301.0
