timestamp,equity,drawdown
2019-05-08 20:46:00-04:00,49778.0,0.0
2019-05-09 20:24:00-04:00,50100.0,0.0
2019-05-10 09:56:00-04:00,49908.0,-192.0
2019-05-14 16:00:00-04:00,49983.0,-117.0
2019-05-15 11:25:00-04:00,50339.0,0.0
2019-05-17 15:16:00-04:00,50130.0,-209.0
2019-05-20 16:00:00-04:00,50019.0,-320.0
2019-06-18 16:00:00-04:00,49936.0,-403.0
2019-06-19 16:00:00-04:00,49982.0,-357.0
2019-07-10 11:18:00-04:00,49755.0,-584.0
2019-08-06 10:14:00-04:00,49584.0,-755.0
2019-08-07 15:00:00-04:00,49968.0,-371.0
2019-08-08 12:33:00-04:00,50412.0,0.0
2019-08-13 16:00:00-04:00,50579.0,0.0
2019-08-23 10:10:00-04:00,50375.0,-204.0
2019-08-28 16:00:00-04:00,50528.0,-51.0
2019-09-03 10:04:00-04:00,50348.0,-231.0
2019-09-11 19:22:00-04:00,50810.0,0.0
2019-09-12 10:51:00-04:00,50612.0,-198.0
2019-09-25 14:11:00-04:00,51044.0,0.0
2019-09-30 20:44:00-04:00,51468.0,0.0
2019-10-03 16:00:00-04:00,51731.0,0.0
2019-10-04 16:00:00-04:00,51984.5,0.0
2019-12-13 16:00:00-05:00,51969.5,-15.0
2020-01-27 16:00:00-05:00,51906.0,-78.5
2020-02-03 16:00:00-05:00,51943.5,-41.0
2020-02-04 16:42:00-05:00,52303.5,0.0
2020-02-06 16:00:00-05:00,52449.5,0.0
2020-02-18 16:00:00-05:00,52522.5,0.0
2020-02-27 11:38:00-05:00,52318.0,-204.5
2020-03-04 16:00:00-05:00,52583.0,0.0
2020-03-05 12:42:00-05:00,52414.5,-168.5
2020-03-06 14:08:00-05:00,52208.0,-375.0
2020-03-10 10:46:00-04:00,51986.0,-597.0
2020-03-24 14:04:00-04:00,51757.5,-825.5
2020-03-27 15:50:00-04:00,51520.0,-1063.0
2020-03-30 20:05:00-04:00,51870.0,-713.0
2020-03-31 10:40:00-04:00,52332.0,-251.0
2020-04-01 12:27:00-04:00,52178.5,-404.5
2020-04-02 16:00:00-04:00,52354.5,-228.5
2020-04-06 15:32:00-04:00,52662.5,0.0
2020-04-08 16:00:00-04:00,52849.5,0.0
2020-04-14 16:00:00-04:00,53106.0,0.0
2020-04-15 16:00:00-04:00,53121.0,0.0
2020-04-16 12:31:00-04:00,52899.0,-222.0
2020-04-20 15:05:00-04:00,52772.0,-349.0
2020-04-22 16:00:00-04:00,52937.0,-184.0
2020-04-23 12:45:00-04:00,52762.5,-358.5
2020-04-27 10:59:00-04:00,52590.5,-530.5
2020-04-29 15:22:00-04:00,52832.5,-288.5
2020-05-01 11:30:00-04:00,52697.0,-424.0
2020-05-04 11:40:00-04:00,53033.0,-88.0
2020-05-05 15:37:00-04:00,52829.0,-292.0
2020-05-06 15:49:00-04:00,52693.5,-427.5
2020-05-08 16:00:00-04:00,52768.5,-352.5
2020-05-11 16:00:00-04:00,52929.0,-192.0
2020-05-13 11:38:00-04:00,52714.0,-407.0
2020-05-14 20:00:00-04:00,52985.0,-136.0
2020-05-15 16:00:00-04:00,53188.0,0.0
2020-05-18 09:54:00-04:00,52998.0,-190.0
2020-05-19 15:51:00-04:00,52750.0,-438.0
2020-05-20 16:00:00-04:00,52906.0,-282.0
2020-05-22 16:00:00-04:00,53031.0,-157.0
2020-05-28 21:15:00-04:00,52862.5,-325.5
2020-05-29 10:08:00-04:00,52643.5,-544.5
2020-06-01 16:00:00-04:00,52724.5,-463.5
2020-06-03 12:09:00-04:00,52510.5,-677.5
2020-06-04 11:12:00-04:00,52324.5,-863.5
2020-06-05 16:00:00-04:00,52409.5,-778.5
2020-06-09 15:20:00-04:00,52817.5,-370.5
2020-06-10 10:56:00-04:00,52622.5,-565.5
2020-06-11 11:01:00-04:00,52426.5,-761.5
2020-06-15 14:01:00-04:00,52780.5,-407.5
2020-06-16 10:41:00-04:00,52552.5,-635.5
2020-06-17 09:57:00-04:00,52381.5,-806.5
2020-06-18 10:33:00-04:00,52194.5,-993.5
2020-06-19 10:46:00-04:00,51948.5,-1239.5
2020-06-22 12:16:00-04:00,52398.5,-789.5
2020-06-29 16:00:00-04:00,52610.5,-577.5
2020-06-30 20:00:00-04:00,52821.0,-367.0
2020-07-01 16:00:00-04:00,52943.5,-244.5
2020-07-02 10:29:00-04:00,52752.5,-435.5
2020-07-06 11:06:00-04:00,53208.5,0.0
2020-07-07 15:09:00-04:00,53078.0,-130.5
2020-07-08 11:18:00-04:00,52867.0,-341.5
2020-07-13 14:03:00-04:00,52723.5,-485.0
2020-07-20 13:40:00-04:00,53042.5,-166.0
2020-07-22 10:47:00-04:00,52911.0,-297.5
2020-07-23 10:12:00-04:00,52780.5,-428.0
2020-07-27 11:38:00-04:00,52571.0,-637.5
2020-07-28 15:05:00-04:00,52428.0,-780.5
2020-07-29 16:00:00-04:00,52524.0,-684.5
2020-07-30 16:09:00-04:00,52818.0,-390.5
2020-08-03 16:00:00-04:00,52783.0,-425.5
2020-08-04 14:31:00-04:00,52593.0,-615.5
2020-08-05 16:00:00-04:00,52601.0,-607.5
2020-08-07 10:21:00-04:00,52373.0,-835.5
2020-08-11 15:16:00-04:00,52185.0,-1023.5
2020-08-12 12:21:00-04:00,52452.0,-756.5
2020-08-13 14:21:00-04:00,52312.0,-896.5
2020-08-17 16:00:00-04:00,52457.5,-751.0
2020-08-20 21:00:00-04:00,52791.5,-417.0
2020-08-21 15:01:00-04:00,53220.5,0.0
2020-08-25 19:49:00-04:00,53688.5,0.0
2020-08-27 12:38:00-04:00,53473.5,-215.0
2020-08-28 10:36:00-04:00,53262.0,-426.5
2020-08-31 13:46:00-04:00,53658.0,-30.5
2020-09-01 20:37:00-04:00,54004.0,0.0
2020-09-07 09:56:00-04:00,53812.0,-192.0
2020-09-09 16:00:00-04:00,53879.0,-125.0
2020-09-10 10:45:00-04:00,53731.0,-273.0
2020-09-14 13:32:00-04:00,53559.5,-444.5
2020-09-15 10:24:00-04:00,53359.5,-644.5
2020-09-22 16:00:00-04:00,53539.0,-465.0
2020-09-24 13:45:00-04:00,53942.0,-62.0
2020-09-25 14:19:00-04:00,54267.0,0.0
2020-09-28 16:00:00-04:00,54299.5,0.0
2020-09-29 10:34:00-04:00,54062.5,-237.0
2020-09-30 14:09:00-04:00,54344.5,0.0
2020-10-02 11:53:00-04:00,54095.0,-249.5
2020-10-05 16:00:00-04:00,54476.0,0.0
2020-10-06 10:44:00-04:00,54275.0,-201.0
2020-10-09 16:01:00-04:00,54631.0,0.0
2020-10-13 13:57:00-04:00,54382.0,-249.0
2020-10-14 10:25:00-04:00,54220.0,-411.0
2020-10-15 10:43:00-04:00,53991.5,-639.5
2020-10-16 11:10:00-04:00,53800.5,-830.5
2020-10-20 11:00:00-04:00,53653.5,-977.5
2020-10-21 11:15:00-04:00,53454.0,-1177.0
2020-10-26 10:49:00-04:00,53242.5,-1388.5
2020-10-27 10:22:00-04:00,53097.0,-1534.0
2020-10-29 14:00:00-04:00,53397.0,-1234.0
2020-11-02 10:43:00-05:00,53240.0,-1391.0
2020-11-03 10:14:00-05:00,53666.0,-965.0
2020-11-05 22:58:00-05:00,53496.5,-1134.5
2020-11-11 16:00:00-05:00,53615.0,-1016.0
2020-11-12 11:40:00-05:00,53430.0,-1201.0
2020-11-13 16:00:00-05:00,53426.0,-1205.0
2020-11-16 16:00:00-05:00,53483.5,-1147.5
2020-11-19 23:43:00-05:00,53915.5,-715.5
2020-11-23 10:06:00-05:00,53723.5,-907.5
2020-11-24 19:08:00-05:00,54055.5,-575.5
2020-11-27 13:14:00-05:00,54128.5,-502.5
2020-11-30 16:03:00-05:00,54130.5,-500.5
2020-12-01 13:48:00-05:00,54564.5,-66.5
2020-12-02 16:00:00-05:00,54688.0,0.0
2020-12-03 11:09:00-05:00,54482.0,-206.0
2020-12-04 16:00:00-05:00,54617.0,-71.0
2020-12-07 16:00:00-05:00,54634.0,-54.0
2020-12-09 10:11:00-05:00,54441.0,-247.0
2020-12-10 16:00:00-05:00,54555.5,-132.5
2020-12-11 11:36:00-05:00,54389.5,-298.5
2020-12-14 16:00:00-05:00,54323.0,-365.0
2020-12-22 11:01:00-05:00,54133.0,-555.0
2021-01-05 21:52:00-05:00,53911.5,-776.5
2021-01-06 16:00:00-05:00,53818.5,-869.5
2021-01-07 16:00:00-05:00,54029.5,-658.5
2021-01-08 13:22:00-05:00,53884.0,-804.0
2021-01-11 15:21:00-05:00,53687.0,-1001.0
2021-01-13 16:00:00-05:00,53865.0,-823.0
2021-01-20 19:57:00-05:00,54149.0,-539.0
2021-01-21 16:00:00-05:00,54241.0,-447.0
2021-01-22 10:38:00-05:00,54060.0,-628.0
2021-01-26 16:00:00-05:00,54010.0,-678.0
2021-02-01 11:01:00-05:00,53774.0,-914.0
2021-02-02 16:00:00-05:00,53815.5,-872.5
2021-02-08 11:29:00-05:00,53637.5,-1050.5
2021-02-09 16:00:00-05:00,53633.5,-1054.5
2021-02-11 10:59:00-05:00,53387.5,-1300.5
2021-02-12 16:59:00-05:00,53851.5,-836.5
2021-02-16 11:08:00-05:00,53643.5,-1044.5
2021-02-17 16:00:00-05:00,53674.0,-1014.0
2021-02-18 16:00:00-05:00,53927.0,-761.0
2021-02-24 16:00:00-05:00,54270.5,-417.5
2021-02-26 14:05:00-05:00,54058.0,-630.0
2021-03-01 14:53:00-05:00,54369.0,-319.0
2021-03-09 13:02:00-05:00,54654.0,-34.0
2021-03-10 10:21:00-05:00,54450.0,-238.0
2021-03-11 16:00:00-05:00,54520.5,-167.5
2021-03-12 16:00:00-05:00,54616.0,-72.0
2021-03-15 11:34:00-04:00,54474.0,-214.0
2021-03-16 14:25:00-04:00,54332.0,-356.0
2021-03-17 15:00:00-04:00,54734.0,0.0
2021-03-19 16:00:00-04:00,54733.0,-1.0
2021-03-22 12:43:00-04:00,55017.0,0.0
2021-03-23 10:34:00-04:00,54771.0,-246.0
2021-03-25 10:49:00-04:00,54533.0,-484.0
2021-03-26 14:09:00-04:00,54391.5,-625.5
2021-03-29 14:31:00-04:00,54255.0,-762.0
2021-03-30 16:00:00-04:00,54219.5,-797.5
2021-03-31 16:00:00-04:00,54356.5,-660.5
2021-04-01 16:00:00-04:00,54442.5,-574.5
2021-04-05 11:36:00-04:00,54814.5,-202.5
2021-04-06 16:00:00-04:00,54744.5,-272.5
2021-04-07 21:41:00-04:00,55144.5,0.0
2021-04-08 10:09:00-04:00,54912.0,-232.5
2021-04-09 16:00:00-04:00,55128.0,-16.5
2021-04-13 16:00:00-04:00,55186.0,0.0
2021-04-15 16:00:00-04:00,55313.0,0.0
2021-04-20 10:40:00-04:00,55186.0,-127.0
2021-04-21 16:00:00-04:00,55429.0,0.0
2021-04-22 13:07:00-04:00,55231.0,-198.0
2021-04-23 11:39:00-04:00,55617.0,0.0
2021-04-26 15:00:00-04:00,56025.0,0.0
2021-04-28 12:00:00-04:00,55780.0,-245.0
2021-04-30 13:53:00-04:00,55555.0,-470.0
2021-05-03 10:52:00-04:00,55411.0,-614.0
2021-05-06 16:00:00-04:00,55563.5,-461.5
2021-05-07 16:00:00-04:00,55490.5,-534.5
2021-05-13 11:25:00-04:00,55349.5,-675.5
2021-05-14 13:31:00-04:00,55777.5,-247.5
2021-05-18 14:23:00-04:00,55560.5,-464.5
2021-05-19 16:00:00-04:00,55881.5,-143.5
2021-05-20 16:00:00-04:00,56056.0,0.0
2021-05-24 16:00:00-04:00,56149.5,0.0
2021-05-27 14:25:00-04:00,55965.5,-184.0
2021-06-02 13:22:00-04:00,55779.5,-370.0
2021-06-03 20:09:00-04:00,55594.0,-555.5
2021-06-04 16:00:00-04:00,55736.5,-413.0
2021-06-09 09:50:00-04:00,55499.5,-650.0
2021-06-11 10:47:00-04:00,55256.5,-893.0
2021-06-14 20:25:00-04:00,55718.5,-431.0
2021-06-15 10:25:00-04:00,55487.5,-662.0
2021-06-16 11:08:00-04:00,55285.0,-864.5
2021-06-17 21:46:00-04:00,55641.0,-508.5
2021-06-21 16:00:00-04:00,55757.0,-392.5
2021-06-22 16:00:00-04:00,55907.5,-242.0
2021-06-23 11:04:00-04:00,55683.5,-466.0
2021-06-24 13:20:00-04:00,55496.5,-653.0
2021-06-28 16:00:00-04:00,55585.0,-564.5
2021-07-01 10:20:00-04:00,55369.0,-780.5
2021-07-02 16:00:00-04:00,55551.0,-598.5
2021-07-06 10:33:00-04:00,55302.0,-847.5
2021-07-08 11:01:00-04:00,55144.5,-1005.0
2021-07-09 16:00:00-04:00,55466.5,-683.0
2021-07-13 11:20:00-04:00,55820.5,-329.0
2021-07-14 11:28:00-04:00,55587.5,-562.0
2021-07-20 16:00:00-04:00,55751.0,-398.5
2021-07-21 16:00:00-04:00,56075.0,-74.5
2021-07-22 16:00:00-04:00,56163.0,0.0
2021-07-23 16:00:00-04:00,56357.5,0.0
2021-07-26 16:00:00-04:00,56438.5,0.0
2021-07-29 16:04:00-04:00,56240.5,-198.0
2021-07-30 16:00:00-04:00,56308.5,-130.0
2021-08-03 16:00:00-04:00,56352.5,-86.0
2021-08-05 16:00:00-04:00,56506.5,0.0
2021-08-12 16:00:00-04:00,56767.5,0.0
2021-08-13 16:00:00-04:00,56899.5,0.0
2021-08-17 11:42:00-04:00,56742.0,-157.5
2021-08-18 11:36:00-04:00,56540.0,-359.5
2021-08-19 16:00:00-04:00,56711.5,-188.0
2021-08-20 15:57:00-04:00,57077.5,0.0
2021-08-23 16:00:00-04:00,57306.0,0.0
2021-08-24 16:00:00-04:00,57313.0,0.0
2021-08-26 10:23:00-04:00,57091.0,-222.0
2021-08-27 16:00:00-04:00,57211.5,-101.5
2021-08-30 16:00:00-04:00,57361.0,0.0
2021-09-01 15:43:00-04:00,57141.0,-220.0
2021-09-03 16:00:00-04:00,57194.5,-166.5
2021-09-21 10:06:00-04:00,57021.0,-340.0
2021-09-22 14:14:00-04:00,57272.0,-89.0
2021-09-23 16:00:00-04:00,57339.5,-21.5
2021-09-24 16:00:00-04:00,57623.5,0.0
2021-09-29 11:35:00-04:00,57455.0,-168.5
2021-09-30 10:07:00-04:00,57316.0,-307.5
2021-10-05 13:40:00-04:00,57630.0,0.0
2021-10-07 16:00:00-04:00,57485.5,-144.5
2021-10-11 15:51:00-04:00,57250.5,-379.5
2021-10-13 16:00:00-04:00,57213.0,-417.0
2021-10-14 19:22:00-04:00,57458.0,-172.0
2021-10-18 14:57:00-04:00,57749.0,0.0
2021-10-19 16:00:00-04:00,57979.0,0.0
2021-10-21 16:00:00-04:00,58328.0,0.0
2021-10-22 10:50:00-04:00,58086.0,-242.0
2021-10-26 12:00:00-04:00,57910.0,-418.0
2021-10-27 16:00:00-04:00,57835.5,-492.5
2021-10-28 16:31:00-04:00,57603.5,-724.5
2021-10-29 15:52:00-04:00,57881.5,-446.5
2021-11-02 16:00:00-04:00,57886.0,-442.0
2021-11-03 15:46:00-04:00,58135.0,-193.0
2021-11-04 10:32:00-04:00,58547.0,0.0
2021-11-10 13:15:00-05:00,58346.0,-201.0
2021-11-12 16:00:00-05:00,58557.5,0.0
2021-11-16 16:00:00-05:00,58634.5,0.0
2021-11-17 11:57:00-05:00,59003.5,0.0
2021-11-18 10:10:00-05:00,58874.0,-129.5
2021-11-19 16:00:00-05:00,58863.0,-140.5
2021-11-22 11:12:00-05:00,58674.5,-329.0
2021-11-23 10:09:00-05:00,58454.0,-549.5
2021-11-24 16:00:00-05:00,58698.0,-305.5
2021-11-29 15:16:00-05:00,58997.0,-6.5
2021-11-30 10:46:00-05:00,58768.0,-235.5
2021-12-01 12:55:00-05:00,58590.0,-413.5
2021-12-07 11:37:00-05:00,58843.0,-160.5
2021-12-08 16:00:00-05:00,58899.0,-104.5
2021-12-20 16:00:00-05:00,58833.5,-170.0
2021-12-21 16:00:00-05:00,59145.5,0.0
2021-12-22 18:00:00-05:00,59479.5,0.0
2021-12-23 16:00:00-05:00,59587.5,0.0
2021-12-27 16:00:00-05:00,59805.5,0.0
2021-12-30 15:45:00-05:00,59650.0,-155.5
2022-01-12 10:39:00-05:00,59433.5,-372.0
2022-01-18 11:31:00-05:00,59185.5,-620.0
2022-01-19 10:32:00-05:00,58994.5,-811.0
2022-01-20 14:12:00-05:00,58793.5,-1012.0
2022-02-07 11:09:00-05:00,58549.0,-1256.5
2022-02-08 18:28:00-05:00,58924.0,-881.5
2022-02-09 16:00:00-05:00,59069.0,-736.5
2022-02-11 09:57:00-05:00,58847.5,-958.0
2022-02-14 13:53:00-05:00,58617.0,-1188.5
2022-02-15 12:47:00-05:00,58454.0,-1351.5
2022-02-16 16:00:00-05:00,58594.5,-1211.0
2022-03-01 10:45:00-05:00,58374.0,-1431.5
2022-03-02 10:08:00-05:00,58165.0,-1640.5
2022-03-09 16:00:00-05:00,58391.0,-1414.5
2022-03-10 21:50:00-05:00,58165.5,-1640.0
2022-03-17 15:59:00-04:00,58561.5,-1244.0
2022-03-18 12:30:00-04:00,58938.5,-867.0
2022-03-23 14:15:00-04:00,58749.0,-1056.5
2022-03-24 15:25:00-04:00,59084.0,-721.5
2022-03-25 11:01:00-04:00,58922.5,-883.0
2022-03-30 11:04:00-04:00,58682.5,-1123.0
2022-04-04 16:00:00-04:00,58997.0,-808.5
2022-04-07 10:40:00-04:00,58752.5,-1053.0
2022-04-08 14:25:00-04:00,58516.5,-1289.0
2022-04-12 10:48:00-04:00,58320.0,-1485.5
2022-04-13 15:32:00-04:00,58765.0,-1040.5
2022-04-18 11:48:00-04:00,58576.5,-1229.0
2022-05-04 14:00:00-04:00,58450.0,-1355.5
2022-05-17 16:00:00-04:00,58479.0,-1326.5
2022-05-27 16:00:00-04:00,58796.5,-1009.0
2022-06-01 10:06:00-04:00,58623.0,-1182.5
2022-06-06 11:13:00-04:00,58415.5,-1390.0
2022-06-07 16:00:00-04:00,58738.5,-1067.0
2022-06-08 12:39:00-04:00,58533.5,-1272.0
2022-06-15 14:04:00-04:00,58352.5,-1453.0
2022-06-22 10:24:00-04:00,58689.5,-1116.0
2022-07-06 16:00:00-04:00,58688.0,-1117.5
2022-07-07 16:00:00-04:00,58906.0,-899.5
2022-07-08 16:00:00-04:00,59036.5,-769.0
2022-07-15 16:00:00-04:00,59070.5,-735.0
2022-07-18 13:33:00-04:00,58922.5,-883.0
2022-07-19 13:49:00-04:00,59251.5,-554.0
2022-07-20 11:35:00-04:00,59561.5,-244.0
2022-07-22 10:00:00-04:00,59373.5,-432.0
2022-07-26 18:10:00-04:00,59385.5,-420.0
2022-07-27 14:44:00-04:00,59784.5,-21.0
2022-08-02 10:09:00-04:00,59579.5,-226.0
2022-08-03 16:00:00-04:00,59902.0,0.0
2022-08-04 10:17:00-04:00,59720.5,-181.5
2022-08-05 11:26:00-04:00,59492.0,-410.0
2022-08-10 16:00:00-04:00,59553.5,-348.5
2022-08-11 11:05:00-04:00,59422.5,-479.5
2022-08-12 16:00:00-04:00,59681.0,-221.0
2022-08-15 16:00:00-04:00,59806.5,-95.5
2022-08-16 14:45:00-04:00,59579.5,-322.5
2022-08-17 15:51:00-04:00,59384.0,-518.0
2022-08-18 16:00:00-04:00,59405.0,-497.0
2022-08-23 18:00:00-04:00,59189.0,-713.0
2022-08-24 16:00:00-04:00,59223.0,-679.0
2022-08-25 10:42:00-04:00,59615.0,-287.0
2022-08-31 10:18:00-04:00,59404.5,-497.5
2022-09-01 16:00:00-04:00,59514.5,-387.5
2022-09-07 10:15:00-04:00,59329.0,-573.0
2022-09-08 16:00:00-04:00,59519.0,-383.0
2022-09-09 16:00:00-04:00,59725.5,-176.5
2022-09-12 12:10:00-04:00,59592.0,-310.0
2022-09-14 10:30:00-04:00,59393.0,-509.0
2022-09-15 10:29:00-04:00,59204.0,-698.0
2022-09-16 11:38:00-04:00,59042.0,-860.0
2022-09-19 16:00:00-04:00,59278.5,-623.5
2022-09-20 13:29:00-04:00,59131.0,-771.0
2022-09-21 13:59:00-04:00,59455.0,-447.0
2022-09-28 12:18:00-04:00,59775.0,-127.0
2022-10-03 14:28:00-04:00,60154.0,0.0
2022-10-04 16:00:00-04:00,60267.0,0.0
2022-10-05 20:12:00-04:00,60600.0,0.0
2022-10-11 14:52:00-04:00,60416.0,-184.0
2022-10-19 12:46:00-04:00,60180.0,-420.0
2022-10-20 13:49:00-04:00,59998.0,-602.0
2022-10-25 15:30:00-04:00,60269.0,-331.0
2022-10-26 16:08:00-04:00,60074.5,-525.5
2022-11-02 14:36:00-04:00,59903.5,-696.5
2022-11-03 11:29:00-04:00,59738.0,-862.0
2022-11-08 14:10:00-05:00,59589.5,-1010.5
2022-11-11 16:00:00-05:00,59900.0,-700.0
2022-11-14 16:00:00-05:00,59828.5,-771.5
2022-11-17 16:00:00-05:00,59937.0,-663.0
2022-11-21 10:06:00-05:00,59798.5,-801.5
2022-11-22 16:00:00-05:00,60016.5,-583.5
2022-11-23 12:57:00-05:00,59776.5,-823.5
2022-11-28 10:25:00-05:00,59592.0,-1008.0
2022-11-29 11:02:00-05:00,59384.0,-1216.0
2022-11-30 14:11:00-05:00,59805.0,-795.0
2022-12-01 10:12:00-05:00,59642.0,-958.0
2022-12-02 16:00:00-05:00,59796.5,-803.5
2022-12-08 16:00:00-05:00,59929.0,-671.0
2022-12-09 16:00:00-05:00,59768.5,-831.5
2022-12-12 10:49:00-05:00,59537.5,-1062.5
2022-12-14 14:00:00-05:00,59383.0,-1217.0
2022-12-16 10:06:00-05:00,59217.5,-1382.5
2022-12-20 16:00:00-05:00,59267.5,-1332.5
2022-12-21 11:10:00-05:00,59525.5,-1074.5
2022-12-29 16:00:00-05:00,59650.0,-950.0
2022-12-30 13:25:00-05:00,59508.5,-1091.5
2023-01-04 14:02:00-05:00,59328.5,-1271.5
2023-01-09 11:14:00-05:00,59810.5,-789.5
2023-01-11 16:00:00-05:00,60025.5,-574.5
2023-01-13 15:35:00-05:00,60273.5,-326.5
2023-01-17 16:00:00-05:00,60267.5,-332.5
2023-01-18 10:37:00-05:00,60135.0,-465.0
2023-01-19 15:46:00-05:00,60008.5,-591.5
2023-01-20 13:50:00-05:00,60290.5,-309.5
2023-01-23 11:06:00-05:00,60615.5,0.0
2023-01-24 10:06:00-05:00,60465.5,-150.0
2023-01-25 14:17:00-05:00,60748.5,0.0
2023-01-27 13:38:00-05:00,61022.5,0.0
2023-01-30 10:23:00-05:00,60893.5,-129.0
2023-01-31 16:00:00-05:00,61098.0,0.0
2023-02-02 13:34:00-05:00,61373.0,0.0
2023-02-06 10:20:00-05:00,61231.0,-142.0
2023-02-07 12:46:00-05:00,61705.0,0.0
2023-02-10 10:53:00-05:00,61522.5,-182.5
2023-02-13 16:00:00-05:00,61741.5,0.0
2023-02-15 09:54:00-05:00,61586.0,-155.5
2023-02-22 10:00:00-05:00,61360.0,-381.5
2023-02-27 10:36:00-05:00,61124.5,-617.0
2023-02-28 16:03:00-05:00,60988.0,-753.5
2023-03-01 10:05:00-05:00,60842.0,-899.5
2023-03-02 13:36:00-05:00,61286.0,-455.5
2023-03-03 12:55:00-05:00,61666.0,-75.5
2023-03-06 14:21:00-05:00,61467.0,-274.5
2023-03-08 13:28:00-05:00,61338.5,-403.0
2023-03-09 12:48:00-05:00,61189.0,-552.5
2023-03-14 14:08:00-04:00,61001.5,-740.0
2023-03-15 12:57:00-04:00,60817.5,-924.0
2023-03-16 11:26:00-04:00,61178.5,-563.0
2023-03-17 10:26:00-04:00,61012.5,-729.0
2023-03-20 16:00:00-04:00,61114.0,-627.5
2023-03-21 10:06:00-04:00,60908.0,-833.5
2023-03-22 14:00:00-04:00,61331.0,-410.5
2023-03-23 14:25:00-04:00,61204.0,-537.5
2023-03-24 16:00:00-04:00,61303.5,-438.0
2023-03-27 10:30:00-04:00,61170.0,-571.5
2023-03-29 10:34:00-04:00,60999.0,-742.5
2023-03-30 10:12:00-04:00,60819.0,-922.5
2023-03-31 15:08:00-04:00,61074.0,-667.5
2023-04-03 10:51:00-04:00,60827.0,-914.5
2023-04-04 11:09:00-04:00,60659.5,-1082.0
2023-04-06 12:00:00-04:00,61127.5,-614.0
2023-04-10 16:00:00-04:00,61330.0,-411.5
2023-04-13 14:14:00-04:00,61576.0,-165.5
2023-04-14 10:29:00-04:00,61393.5,-348.0
2023-04-18 09:58:00-04:00,61147.5,-594.0
2023-04-19 16:00:00-04:00,61303.5,-438.0
2023-04-20 15:16:00-04:00,61164.0,-577.5
2023-04-21 10:41:00-04:00,60924.0,-817.5
2023-04-26 10:22:00-04:00,60794.0,-947.5
2023-04-27 11:25:00-04:00,61116.0,-625.5
2023-04-28 16:00:00-04:00,61274.0,-467.5
2023-05-01 10:01:00-04:00,61067.0,-674.5
2023-05-03 11:02:00-04:00,60891.0,-850.5
2023-05-04 12:07:00-04:00,60662.0,-1079.5
2023-05-05 13:22:00-04:00,61088.0,-653.5
2023-05-09 10:29:00-04:00,60854.0,-887.5
2023-05-10 10:46:00-04:00,60650.0,-1091.5
2023-05-11 16:00:00-04:00,60682.0,-1059.5
2023-05-15 09:51:00-04:00,60476.5,-1265.0
2023-05-16 16:00:00-04:00,60429.5,-1312.0
2023-05-18 11:46:00-04:00,60680.5,-1061.0
2023-05-22 16:00:00-04:00,60638.5,-1103.0
2023-05-25 16:00:00-04:00,60659.5,-1082.0
2023-05-26 10:43:00-04:00,60971.5,-770.0
2023-05-31 10:14:00-04:00,60815.0,-926.5
2023-06-01 12:19:00-04:00,61080.0,-661.5
2023-06-05 14:33:00-04:00,60905.5,-836.0
2023-06-06 16:00:00-04:00,60935.0,-806.5
2023-06-08 16:00:00-04:00,61116.0,-625.5
2023-06-09 11:28:00-04:00,60958.0,-783.5
2023-06-12 14:35:00-04:00,61420.0,-321.5
2023-06-14 11:27:00-04:00,61842.0,0.0
2023-06-15 14:35:00-04:00,62180.0,0.0
2023-06-20 10:15:00-04:00,61971.0,-209.0
2023-06-22 16:36:00-04:00,62321.0,0.0
2023-06-23 16:00:00-04:00,62242.0,-79.0
2023-06-26 11:06:00-04:00,62102.0,-219.0
2023-06-27 16:00:00-04:00,62341.0,0.0
2023-06-28 16:00:00-04:00,62449.5,0.0
2023-06-30 16:00:00-04:00,62454.0,0.0
2023-07-03 10:32:00-04:00,62209.5,-244.5
2023-07-05 16:00:00-04:00,62152.0,-302.0
2023-07-07 10:34:00-04:00,62026.0,-428.0
2023-07-11 16:00:00-04:00,62052.0,-402.0
2023-07-12 11:39:00-04:00,61839.0,-615.0
2023-07-13 16:00:00-04:00,62016.5,-437.5
2023-07-14 14:25:00-04:00,61842.0,-612.0
2023-07-17 16:00:00-04:00,62014.0,-440.0
2023-07-18 13:41:00-04:00,62277.0,-177.0
2023-07-19 10:55:00-04:00,62149.0,-305.0
2023-07-25 16:00:00-04:00,62150.0,-304.0
2023-07-26 15:08:00-04:00,61958.0,-496.0
2023-07-27 10:24:00-04:00,61797.0,-657.0
2023-07-28 16:00:00-04:00,61869.0,-585.0
2023-07-31 09:55:00-04:00,61626.0,-828.0
2023-08-01 10:14:00-04:00,61445.0,-1009.0
2023-08-03 16:00:00-04:00,61433.5,-1020.5
2023-08-04 14:01:00-04:00,61246.0,-1208.0
2023-08-10 11:20:00-04:00,61045.5,-1408.5
2023-08-11 11:25:00-04:00,60863.0,-1591.0
2023-08-14 15:59:00-04:00,61168.0,-1286.0
2023-08-16 11:50:00-04:00,60921.0,-1533.0
2023-08-18 16:00:00-04:00,61071.5,-1382.5
2023-08-21 11:10:00-04:00,60886.0,-1568.0
2023-08-23 10:23:00-04:00,61252.0,-1202.0
2023-08-25 10:08:00-04:00,61124.5,-1329.5
2023-08-29 11:19:00-04:00,61497.5,-956.5
2023-08-30 10:26:00-04:00,61339.0,-1115.0
2023-08-31 16:00:00-04:00,61308.0,-1146.0
2023-09-05 16:00:00-04:00,61359.5,-1094.5
2023-09-06 10:00:00-04:00,61160.5,-1293.5
2023-09-07 16:00:00-04:00,61186.5,-1267.5
2023-09-08 14:59:00-04:00,60999.0,-1455.0
2023-09-12 10:27:00-04:00,60867.5,-1586.5
2023-09-13 16:00:00-04:00,60869.5,-1584.5
2023-09-14 16:00:00-04:00,60933.0,-1521.0
2023-09-18 16:00:00-04:00,60895.5,-1558.5
2023-09-20 10:14:00-04:00,60651.5,-1802.5
2023-09-22 14:12:00-04:00,60425.5,-2028.5
2023-09-25 16:00:00-04:00,60571.5,-1882.5
2023-09-27 10:01:00-04:00,60376.5,-2077.5
2023-09-28 11:48:00-04:00,60679.5,-1774.5
2023-09-29 10:24:00-04:00,60464.5,-1989.5
2023-10-03 10:02:00-04:00,60327.5,-2126.5
2023-10-04 16:00:00-04:00,60448.5,-2005.5
2023-10-06 11:43:00-04:00,60865.5,-1588.5
2023-10-09 20:29:00-04:00,61216.5,-1237.5
2023-10-10 11:07:00-04:00,61616.5,-837.5
2023-10-11 16:02:00-04:00,61618.5,-835.5
2023-10-12 13:08:00-04:00,61379.5,-1074.5
2023-10-16 16:00:00-04:00,61425.5,-1028.5
2023-10-17 16:00:00-04:00,61539.5,-914.5
2023-10-18 10:35:00-04:00,61385.5,-1068.5
2023-10-19 12:31:00-04:00,61196.5,-1257.5
2023-10-23 16:00:00-04:00,61370.0,-1084.0
2023-10-24 12:21:00-04:00,61214.0,-1240.0
2023-10-27 10:09:00-04:00,61008.0,-1446.0
2023-10-30 10:28:00-04:00,60778.5,-1675.5
2023-10-31 16:00:00-04:00,60866.5,-1587.5
2023-11-01 15:00:00-04:00,61322.5,-1131.5
2023-11-02 16:00:00-04:00,61480.5,-973.5
2023-11-03 16:00:00-04:00,61629.5,-824.5
2023-11-07 16:00:00-05:00,61794.0,-660.0
2023-11-09 10:07:00-05:00,61556.0,-898.0
2023-11-10 13:25:00-05:00,61866.0,-588.0
2023-11-13 16:00:00-05:00,61887.0,-567.0
2023-11-14 16:00:00-05:00,61960.5,-493.5
2023-11-16 10:41:00-05:00,61753.5,-700.5
2023-11-20 16:00:00-05:00,61948.5,-505.5
2023-11-27 16:00:00-05:00,61874.0,-580.0
2023-11-28 16:00:00-05:00,62017.0,-437.0
2023-12-01 10:26:00-05:00,61880.5,-573.5
2023-12-05 16:00:00-05:00,61997.5,-456.5
2023-12-07 16:00:00-05:00,62075.0,-379.0
2023-12-08 16:00:00-05:00,62201.5,-252.5
2023-12-11 16:00:00-05:00,62358.0,-96.0
2023-12-12 18:09:00-05:00,62640.0,0.0
2023-12-13 14:42:00-05:00,63064.0,0.0
2023-12-14 10:05:00-05:00,62847.0,-217.0
2023-12-15 13:41:00-05:00,62710.0,-354.0
2023-12-18 16:00:00-05:00,62891.0,-173.0
2023-12-22 11:00:00-05:00,62678.0,-386.0
2023-12-29 10:34:00-05:00,62471.0,-593.0
2024-01-04 15:55:00-05:00,62339.0,-725.0
2024-01-05 13:16:00-05:00,62212.5,-851.5
2024-01-08 14:11:00-05:00,62537.5,-526.5
2024-01-09 12:53:00-05:00,63015.5,-48.5
2024-01-10 14:13:00-05:00,63462.5,0.0
2024-01-12 10:00:00-05:00,63326.0,-136.5
2024-01-16 14:19:00-05:00,63168.5,-294.0
2024-01-18 12:13:00-05:00,63034.0,-428.5
2024-01-19 12:31:00-05:00,63384.0,-78.5
2024-01-24 14:23:00-05:00,63248.0,-214.5
2024-01-25 12:08:00-05:00,63022.0,-440.5
2024-01-26 12:49:00-05:00,62812.0,-650.5
2024-01-31 15:01:00-05:00,62657.5,-805.0
2024-02-01 10:54:00-05:00,62454.5,-1008.0
2024-02-07 16:00:00-05:00,62520.0,-942.5
2024-02-08 16:00:00-05:00,62532.0,-930.5
2024-02-09 10:35:00-05:00,62973.0,-489.5
2024-02-14 11:00:00-05:00,62803.0,-659.5
2024-02-15 16:00:00-05:00,62815.5,-647.0
2024-02-21 10:31:00-05:00,62677.0,-785.5
2024-02-22 14:14:00-05:00,62946.0,-516.5
2024-02-27 12:54:00-05:00,62761.0,-701.5
2024-02-28 12:39:00-05:00,62549.0,-913.5
2024-03-01 12:19:00-05:00,62983.0,-479.5
2024-03-06 13:33:00-05:00,62742.0,-720.5
2024-03-07 16:16:00-05:00,62604.0,-858.5
2024-03-08 11:08:00-05:00,62466.5,-996.0
2024-03-11 16:00:00-04:00,62405.5,-1057.0
2024-03-18 11:53:00-04:00,62252.5,-1210.0
2024-03-19 16:00:00-04:00,62481.0,-981.5
2024-03-20 19:07:00-04:00,62902.0,-560.5
2024-03-22 10:40:00-04:00,62717.0,-745.5
2024-03-25 16:00:00-04:00,62734.0,-728.5
2024-03-26 10:29:00-04:00,62512.0,-950.5
2024-03-28 13:17:00-04:00,62270.0,-1192.5
2024-04-03 19:31:00-04:00,62594.0,-868.5
2024-04-05 11:55:00-04:00,62927.0,-535.5
2024-04-08 16:00:00-04:00,62850.0,-612.5
2024-04-11 13:19:00-04:00,63102.0,-360.5
2024-04-16 10:37:00-04:00,62974.0,-488.5
2024-04-19 09:52:00-04:00,62817.0,-645.5
2024-04-22 10:09:00-04:00,62572.0,-890.5
2024-04-23 20:38:00-04:00,62976.0,-486.5
2024-04-24 09:56:00-04:00,62823.0,-639.5
2024-04-25 15:24:00-04:00,63217.0,-245.5
2024-04-26 16:00:00-04:00,63339.5,-123.0
2024-05-01 14:32:00-04:00,63212.5,-250.0
2024-05-02 18:16:00-04:00,63568.5,0.0
2024-05-03 10:13:00-04:00,63422.5,-146.0
2024-05-06 16:00:00-04:00,63785.5,0.0
2024-05-08 16:00:00-04:00,63832.0,0.0
2024-05-09 16:00:00-04:00,63842.5,0.0
2024-05-10 10:19:00-04:00,63673.0,-169.5
2024-05-14 15:54:00-04:00,64117.0,0.0
2024-05-15 12:32:00-04:00,64447.0,0.0
2024-05-16 13:25:00-04:00,64237.0,-210.0
2024-05-17 11:04:00-04:00,64031.5,-415.5
2024-05-20 16:00:00-04:00,64147.0,-300.0
2024-05-21 15:55:00-04:00,64473.0,0.0
2024-05-22 13:37:00-04:00,64224.0,-249.0
2024-05-24 09:54:00-04:00,64026.0,-447.0
2024-05-29 16:46:00-04:00,63877.0,-596.0
2024-06-04 10:14:00-04:00,63716.5,-756.5
2024-06-05 10:00:00-04:00,63534.5,-938.5
2024-06-07 16:00:00-04:00,63493.5,-979.5
2024-06-10 16:00:00-04:00,63772.5,-700.5
2024-06-11 14:04:00-04:00,64110.5,-362.5
2024-06-12 16:00:00-04:00,64114.5,-358.5
2024-06-14 16:00:00-04:00,64403.5,-69.5
2024-06-17 12:29:00-04:00,64791.5,0.0
2024-06-21 13:19:00-04:00,64543.5,-248.0
2024-06-24 10:29:00-04:00,64340.5,-451.0
2024-06-25 11:55:00-04:00,64776.5,-15.0
2024-06-26 11:11:00-04:00,64529.5,-262.0
2024-06-27 11:28:00-04:00,64283.0,-508.5
2024-06-28 10:14:00-04:00,64571.0,-220.5
2024-07-01 16:00:00-04:00,64689.0,-102.5
2024-07-02 16:00:00-04:00,64992.5,0.0
2024-07-03 11:55:00-04:00,65406.5,0.0
2024-07-05 13:39:00-04:00,65654.5,0.0
2024-07-08 10:01:00-04:00,65463.5,-191.0
2024-07-10 11:00:00-04:00,65243.5,-411.0
2024-07-12 10:36:00-04:00,65705.5,0.0
2024-07-15 13:01:00-04:00,65555.5,-150.0
2024-07-22 11:16:00-04:00,65320.5,-385.0
2024-07-23 10:51:00-04:00,65098.0,-607.5
2024-07-26 10:31:00-04:00,64896.5,-809.0
2024-07-31 16:05:00-04:00,65336.5,-369.0
2024-08-09 10:35:00-04:00,65129.0,-576.5
2024-08-12 16:00:00-04:00,65085.5,-620.0
2024-08-13 13:01:00-04:00,65433.5,-272.0
2024-08-15 12:17:00-04:00,65725.5,0.0
2024-08-16 16:00:00-04:00,65817.5,0.0
2024-08-19 10:19:00-04:00,65657.0,-160.5
2024-08-20 10:17:00-04:00,65522.0,-295.5
2024-08-21 10:41:00-04:00,65904.0,0.0
2024-08-23 10:48:00-04:00,65676.0,-228.0
2024-08-27 16:00:00-04:00,65873.5,-30.5
2024-08-30 10:57:00-04:00,65732.5,-171.5
2024-09-04 10:00:00-04:00,65513.5,-390.5
2024-09-09 10:30:00-04:00,65333.5,-570.5
2024-09-10 16:00:00-04:00,65372.5,-531.5
2024-09-11 14:29:00-04:00,65793.5,-110.5
2024-09-12 14:00:00-04:00,66136.5,0.0
2024-09-13 16:00:00-04:00,66163.5,0.0
2024-09-17 10:59:00-04:00,65992.5,-171.0
2024-09-19 16:00:00-04:00,65989.0,-174.5
2024-09-23 13:01:00-04:00,65847.5,-316.0
2024-09-24 16:00:00-04:00,65863.0,-300.5
2024-09-25 13:00:00-04:00,65693.5,-470.0
2024-09-30 16:00:00-04:00,65636.0,-527.5
2024-10-03 13:00:00-04:00,65397.5,-766.0
2024-10-04 16:00:00-04:00,65326.5,-837.0
2024-10-07 14:04:00-04:00,65199.0,-964.5
2024-10-08 10:35:00-04:00,65583.0,-580.5
2024-10-09 11:50:00-04:00,65837.0,-326.5
2024-10-10 16:00:00-04:00,65953.0,-210.5
2024-10-11 16:00:00-04:00,66069.5,-94.0
2024-10-14 11:01:00-04:00,65916.0,-247.5
2024-10-16 16:00:00-04:00,65869.5,-294.0
2024-10-18 16:00:00-04:00,65821.0,-342.5
2024-10-21 10:40:00-04:00,65681.5,-482.0
2024-10-22 16:00:00-04:00,65787.5,-376.0
2024-10-24 16:00:00-04:00,65807.0,-356.5
2024-10-25 13:44:00-04:00,65597.0,-566.5
2024-10-29 15:22:00-04:00,65995.0,-168.5
2024-11-01 16:00:00-04:00,65981.5,-182.0
2024-11-05 21:19:00-05:00,66391.5,0.0
2024-11-07 16:00:00-05:00,66638.5,0.0
2024-11-12 10:08:00-05:00,66505.0,-133.5
2024-11-13 15:54:00-05:00,66306.0,-332.5
2024-11-18 11:39:00-05:00,66573.0,-65.5
2024-11-19 13:56:00-05:00,66950.0,0.0
2024-11-20 16:20:00-05:00,66700.0,-250.0
2024-11-22 10:10:00-05:00,66508.0,-442.0
2024-11-26 10:00:00-05:00,66369.0,-581.0
2024-11-29 13:14:00-05:00,66589.5,-360.5
2024-12-02 16:00:00-05:00,66734.0,-216.0
2024-12-03 21:59:00-05:00,67004.0,0.0
2024-12-04 15:50:00-05:00,67420.0,0.0
2024-12-06 16:00:00-05:00,67587.5,0.0
2024-12-09 10:26:00-05:00,67459.0,-128.5
2024-12-10 10:58:00-05:00,67292.0,-295.5
2024-12-11 15:17:00-05:00,67616.0,0.0
2024-12-12 15:13:00-05:00,67436.0,-180.0
2024-12-13 10:40:00-05:00,67208.0,-408.0
2024-12-16 12:40:00-05:00,67456.0,-160.0
2024-12-17 14:32:00-05:00,67279.0,-337.0
2024-12-18 14:01:00-05:00,67086.0,-530.0
2024-12-23 16:00:00-05:00,67253.5,-362.5
2024-12-24 12:59:00-05:00,67562.5,-53.5
2024-12-26 19:20:00-05:00,67336.5,-279.5
2025-01-06 13:45:00-05:00,67118.5,-497.5
2025-01-13 18:32:00-05:00,67595.5,-20.5
2025-01-22 16:00:00-05:00,67618.5,0.0
2025-01-23 15:58:00-05:00,68056.5,0.0
2025-01-24 10:16:00-05:00,67832.5,-224.0
2025-01-30 10:02:00-05:00,67678.5,-378.0
2025-01-31 13:34:00-05:00,67522.5,-534.0
2025-02-05 10:03:00-05:00,67377.5,-679.0
2025-02-06 14:33:00-05:00,67233.0,-823.5
2025-02-10 16:00:00-05:00,67288.0,-768.5
2025-02-11 16:00:00-05:00,67227.5,-829.0
2025-02-13 16:00:00-05:00,67507.0,-549.5
2025-02-14 16:00:00-05:00,67680.0,-376.5
2025-02-19 20:42:00-05:00,67471.0,-585.5
2025-02-26 13:29:00-05:00,67289.0,-767.5
2025-03-24 16:00:00-04:00,67428.0,-628.5
2025-03-25 16:00:00-04:00,67556.0,-500.5
2025-04-24 11:11:00-04:00,68030.0,-26.5
2025-04-29 16:00:00-04:00,68290.0,0.0
2025-05-01 15:56:00-04:00,68074.5,-215.5
2025-05-02 16:00:00-04:00,68189.5,-100.5
2025-05-05 20:24:00-04:00,68024.0,-266.0
2025-05-06 18:01:00-04:00,68378.0,0.0
2025-05-07 10:54:00-04:00,68157.0,-221.0
2025-05-08 20:28:00-04:00,67960.0,-418.0
2025-05-13 12:35:00-04:00,68414.0,0.0
2025-05-14 13:21:00-04:00,68218.5,-195.5
2025-05-15 13:18:00-04:00,68529.5,0.0
2025-05-16 16:54:00-04:00,68361.5,-168.0
2025-05-20 11:00:00-04:00,68148.5,-381.0
2025-05-21 13:24:00-04:00,67950.0,-579.5
2025-05-27 13:48:00-04:00,68317.0,-212.5
2025-05-30 11:41:00-04:00,68111.5,-418.0
2025-06-03 16:00:00-04:00,68273.0,-256.5
2025-06-06 10:32:00-04:00,68088.5,-441.0
2025-06-09 21:30:00-04:00,68350.5,-179.0
2025-06-10 11:32:00-04:00,68204.0,-325.5
2025-06-11 12:07:00-04:00,68068.0,-461.5
2025-06-12 19:59:00-04:00,67922.5,-607.0
2025-06-16 19:59:00-04:00,67745.5,-784.0
2025-06-17 12:59:00-04:00,67574.5,-955.0
2025-06-18 14:57:00-04:00,67418.0,-1111.5
2025-06-19 18:01:00-04:00,67446.5,-1083.0
2025-06-24 16:00:00-04:00,67582.0,-947.5
2025-06-26 16:00:00-04:00,67742.0,-787.5
2025-06-27 14:19:00-04:00,67614.0,-915.5
2025-06-30 16:00:00-04:00,67619.5,-910.0
2025-07-01 10:22:00-04:00,67486.5,-1043.0
2025-07-02 21:25:00-04:00,67768.5,-761.0
2025-07-03 18:00:00-04:00,67852.5,-677.0
2025-07-09 10:36:00-04:00,67655.0,-874.5
2025-07-11 16:00:00-04:00,67633.5,-896.0
2025-07-17 14:00:00-04:00,67914.5,-615.0
2025-07-21 16:00:00-04:00,67864.5,-665.0
2025-07-23 16:00:00-04:00,67938.5,-591.0
2025-07-25 16:00:00-04:00,68075.5,-454.0
2025-07-28 11:19:00-04:00,67854.5,-675.0
2025-07-30 14:56:00-04:00,67711.0,-818.5
2025-08-05 10:17:00-04:00,67555.0,-974.5
2025-08-06 14:08:00-04:00,67902.0,-627.5
2025-08-07 10:10:00-04:00,67763.0,-766.5
2025-08-08 16:00:00-04:00,67950.0,-579.5
2025-08-11 14:04:00-04:00,67708.0,-821.5
2025-08-12 16:00:00-04:00,67953.0,-576.5
2025-08-14 16:00:00-04:00,67927.5,-602.0
2025-08-18 10:30:00-04:00,67712.5,-817.0
2025-08-21 11:55:00-04:00,67515.5,-1014.0
2025-08-25 20:03:00-04:00,67363.0,-1166.5
2025-08-26 16:00:00-04:00,67636.0,-893.5
2025-08-27 16:20:00-04:00,68058.0,-471.5
2025-08-28 16:00:00-04:00,68067.5,-462.0
2025-09-03 13:45:00-04:00,67890.0,-639.5
2025-09-04 23:58:00-04:00,68268.0,-261.5
2025-09-08 13:52:00-04:00,68107.5,-422.0
2025-09-11 16:00:00-04:00,68120.5,-409.0
2025-09-12 16:00:00-04:00,68177.0,-352.5
2025-09-15 22:31:00-04:00,68631.0,0.0
2025-09-18 16:00:00-04:00,68597.5,-33.5
2025-09-19 10:47:00-04:00,68364.5,-266.5
2025-09-22 12:11:00-04:00,68722.5,0.0
2025-09-29 11:36:00-04:00,68556.5,-166.0
2025-09-30 13:24:00-04:00,68369.5,-353.0
2025-10-01 20:45:00-04:00,68777.5,0.0
2025-10-08 15:51:00-04:00,69110.5,0.0
2025-10-10 10:57:00-04:00,68924.5,-186.0
2025-10-16 09:50:00-04:00,68746.0,-364.5
2025-10-20 16:00:00-04:00,68886.0,-224.5
2025-10-21 16:03:00-04:00,68725.0,-385.5
2025-10-22 10:27:00-04:00,68519.5,-591.0
2025-10-23 16:00:00-04:00,68784.0,-326.5
2025-10-24 16:00:00-04:00,68726.5,-384.0
2025-10-27 16:44:00-04:00,69024.5,-86.0
2025-10-28 16:00:00-04:00,69095.5,-15.0
2025-10-29 10:50:00-04:00,68917.5,-193.0
2025-11-10 10:59:00-05:00,68678.5,-432.0
2025-11-11 16:00:00-05:00,68692.0,-418.5
2025-11-26 09:58:00-05:00,68522.5,-588.0
2025-11-28 13:14:00-05:00,68638.0,-472.5
2025-12-03 16:00:00-05:00,68817.0,-293.5
2025-12-09 16:00:00-05:00,68868.0,-242.5
2025-12-10 10:40:00-05:00,68666.0,-444.5
2025-12-11 16:53:00-05:00,69059.0,-51.5
2025-12-23 10:03:00-05:00,68852.5,-258.0
2025-12-24 13:14:00-05:00,68974.5,-136.0
2025-12-30 15:59:00-05:00,68848.0,-262.5
2026-01-06 16:00:00-05:00,69111.0,0.0
2026-01-07 22:46:00-05:00,68908.5,-202.5
2026-01-19 18:00:00-05:00,69006.0,-105.0
2026-01-23 16:00:00-05:00,69123.5,0.0
2026-01-27 16:00:00-05:00,69207.5,0.0
2026-02-16 20:52:00-05:00,69067.0,-140.5
