timestamp,equity,drawdown
2019-05-06 16:00:00-04:00,50116.0,0.0
2019-05-08 20:46:00-04:00,49894.0,-222.0
2019-05-09 20:24:00-04:00,50216.0,0.0
2019-05-10 09:56:00-04:00,50024.0,-192.0
2019-05-14 16:00:00-04:00,50099.0,-117.0
2019-05-15 11:25:00-04:00,50455.0,0.0
2019-05-17 15:16:00-04:00,50246.0,-209.0
2019-05-20 16:00:00-04:00,50135.0,-320.0
2019-05-22 13:10:00-04:00,49941.5,-513.5
2019-06-04 13:04:00-04:00,50388.5,-66.5
2019-06-18 16:00:00-04:00,50305.5,-149.5
2019-06-19 16:00:00-04:00,50351.5,-103.5
2019-07-10 11:18:00-04:00,50124.5,-330.5
2019-08-01 13:40:00-04:00,49992.5,-462.5
2019-08-06 10:14:00-04:00,49821.5,-633.5
2019-08-07 15:00:00-04:00,50205.5,-249.5
2019-08-08 12:33:00-04:00,50649.5,0.0
2019-08-13 16:00:00-04:00,50816.5,0.0
2019-08-16 16:00:00-04:00,50960.5,0.0
2019-08-23 10:10:00-04:00,50756.5,-204.0
2019-08-27 10:23:00-04:00,50508.5,-452.0
2019-08-28 16:00:00-04:00,50661.5,-299.0
2019-08-29 10:37:00-04:00,50441.0,-519.5
2019-09-03 10:04:00-04:00,50261.0,-699.5
2019-09-04 10:07:00-04:00,50043.5,-917.0
2019-09-11 19:22:00-04:00,50505.5,-455.0
2019-09-12 10:51:00-04:00,50307.5,-653.0
2019-09-16 11:59:00-04:00,50106.5,-854.0
2019-09-25 14:11:00-04:00,50538.5,-422.0
2019-09-30 20:44:00-04:00,50962.5,0.0
2019-10-03 16:00:00-04:00,51225.5,0.0
2019-10-04 16:00:00-04:00,51479.0,0.0
2019-10-10 10:57:00-04:00,51915.0,0.0
2019-12-13 16:00:00-05:00,51900.0,-15.0
2020-01-27 16:00:00-05:00,51836.5,-78.5
2020-01-30 16:00:00-05:00,51909.0,-6.0
2020-02-03 16:00:00-05:00,51946.5,0.0
2020-02-04 16:42:00-05:00,52306.5,0.0
2020-02-06 16:00:00-05:00,52452.5,0.0
2020-02-18 16:00:00-05:00,52525.5,0.0
2020-02-27 11:38:00-05:00,52321.0,-204.5
2020-03-04 16:00:00-05:00,52586.0,0.0
2020-03-05 12:42:00-05:00,52417.5,-168.5
2020-03-06 14:08:00-05:00,52211.0,-375.0
2020-03-10 10:46:00-04:00,51989.0,-597.0
2020-03-24 14:04:00-04:00,51760.5,-825.5
2020-03-27 15:50:00-04:00,51523.0,-1063.0
2020-03-30 20:05:00-04:00,51873.0,-713.0
2020-03-31 10:40:00-04:00,52335.0,-251.0
2020-04-01 12:27:00-04:00,52181.5,-404.5
2020-04-02 16:00:00-04:00,52357.5,-228.5
2020-04-06 15:32:00-04:00,52665.5,0.0
2020-04-08 16:00:00-04:00,52852.5,0.0
2020-04-14 16:00:00-04:00,53109.0,0.0
2020-04-15 16:00:00-04:00,53124.0,0.0
2020-04-16 12:31:00-04:00,52902.0,-222.0
2020-04-20 15:05:00-04:00,52775.0,-349.0
2020-04-22 16:00:00-04:00,52940.0,-184.0
2020-04-23 12:45:00-04:00,52765.5,-358.5
2020-04-27 10:59:00-04:00,52593.5,-530.5
2020-04-29 15:22:00-04:00,52835.5,-288.5
2020-05-01 11:30:00-04:00,52700.0,-424.0
2020-05-04 11:40:00-04:00,53036.0,-88.0
2020-05-05 15:37:00-04:00,52832.0,-292.0
2020-05-06 15:49:00-04:00,52696.5,-427.5
2020-05-08 16:00:00-04:00,52771.5,-352.5
2020-05-11 16:00:00-04:00,52932.0,-192.0
2020-05-13 11:38:00-04:00,52717.0,-407.0
2020-05-14 20:00:00-04:00,52988.0,-136.0
2020-05-15 16:00:00-04:00,53191.0,0.0
2020-05-18 09:54:00-04:00,53001.0,-190.0
2020-05-19 15:51:00-04:00,52753.0,-438.0
2020-05-20 16:00:00-04:00,52909.0,-282.0
2020-05-22 16:00:00-04:00,53034.0,-157.0
2020-05-28 21:15:00-04:00,52865.5,-325.5
2020-05-29 10:08:00-04:00,52646.5,-544.5
2020-06-01 16:00:00-04:00,52727.5,-463.5
2020-06-03 12:09:00-04:00,52513.5,-677.5
2020-06-04 11:12:00-04:00,52327.5,-863.5
2020-06-05 16:00:00-04:00,52412.5,-778.5
2020-06-09 15:20:00-04:00,52820.5,-370.5
2020-06-10 10:56:00-04:00,52625.5,-565.5
2020-06-11 11:01:00-04:00,52429.5,-761.5
2020-06-15 14:01:00-04:00,52783.5,-407.5
2020-06-16 10:41:00-04:00,52555.5,-635.5
2020-06-17 09:57:00-04:00,52384.5,-806.5
2020-06-18 10:33:00-04:00,52197.5,-993.5
2020-06-19 10:46:00-04:00,51951.5,-1239.5
2020-06-22 12:16:00-04:00,52401.5,-789.5
2020-06-23 13:37:00-04:00,52745.5,-445.5
2020-06-25 16:00:00-04:00,52889.5,-301.5
2020-06-29 16:00:00-04:00,53101.5,-89.5
2020-06-30 20:00:00-04:00,53312.0,0.0
2020-07-01 16:00:00-04:00,53434.5,0.0
2020-07-02 10:29:00-04:00,53243.5,-191.0
2020-07-06 11:06:00-04:00,53699.5,0.0
2020-07-07 15:09:00-04:00,53569.0,-130.5
2020-07-08 11:18:00-04:00,53358.0,-341.5
2020-07-13 14:03:00-04:00,53214.5,-485.0
2020-07-16 16:04:00-04:00,53065.0,-634.5
2020-07-20 13:40:00-04:00,53384.0,-315.5
2020-07-22 10:47:00-04:00,53252.5,-447.0
2020-07-23 10:12:00-04:00,53122.0,-577.5
2020-07-27 11:38:00-04:00,52912.5,-787.0
2020-07-28 15:05:00-04:00,52769.5,-930.0
2020-07-29 16:00:00-04:00,52865.5,-834.0
2020-07-30 16:09:00-04:00,53159.5,-540.0
2020-08-03 16:00:00-04:00,53124.5,-575.0
2020-08-04 14:31:00-04:00,52934.5,-765.0
2020-08-05 16:00:00-04:00,52942.5,-757.0
2020-08-06 14:09:00-04:00,53300.5,-399.0
2020-08-07 10:21:00-04:00,53072.5,-627.0
2020-08-11 15:16:00-04:00,52884.5,-815.0
2020-08-12 12:21:00-04:00,53151.5,-548.0
2020-08-13 14:21:00-04:00,53011.5,-688.0
2020-08-17 16:00:00-04:00,53157.0,-542.5
2020-08-20 21:00:00-04:00,53491.0,-208.5
2020-08-21 15:01:00-04:00,53920.0,0.0
2020-08-25 19:49:00-04:00,54388.0,0.0
2020-08-26 11:40:00-04:00,54847.0,0.0
2020-08-27 12:38:00-04:00,54632.0,-215.0
2020-08-28 10:36:00-04:00,54420.5,-426.5
2020-08-31 13:46:00-04:00,54816.5,-30.5
2020-09-01 20:37:00-04:00,55162.5,0.0
2020-09-07 09:56:00-04:00,54970.5,-192.0
2020-09-10 10:45:00-04:00,54822.5,-340.0
2020-09-14 13:32:00-04:00,54651.0,-511.5
2020-09-15 10:24:00-04:00,54451.0,-711.5
2020-09-22 16:00:00-04:00,54630.5,-532.0
2020-09-25 14:19:00-04:00,54955.5,-207.0
2020-09-28 16:00:00-04:00,54988.0,-174.5
2020-09-29 10:34:00-04:00,54751.0,-411.5
2020-09-30 14:09:00-04:00,55033.0,-129.5
2020-10-01 13:59:00-04:00,54840.0,-322.5
2020-10-02 11:53:00-04:00,54590.5,-572.0
2020-10-05 16:00:00-04:00,54971.5,-191.0
2020-10-06 10:44:00-04:00,54770.5,-392.0
2020-10-07 16:00:00-04:00,54902.5,-260.0
2020-10-09 16:01:00-04:00,55258.5,0.0
2020-10-13 13:57:00-04:00,55009.5,-249.0
2020-10-14 10:25:00-04:00,54847.5,-411.0
2020-10-15 10:43:00-04:00,54619.0,-639.5
2020-10-16 11:10:00-04:00,54428.0,-830.5
2020-10-20 11:00:00-04:00,54281.0,-977.5
2020-10-21 11:15:00-04:00,54081.5,-1177.0
2020-10-26 10:49:00-04:00,53870.0,-1388.5
2020-10-27 10:22:00-04:00,53724.5,-1534.0
2020-10-29 14:00:00-04:00,54024.5,-1234.0
2020-11-02 10:43:00-05:00,53867.5,-1391.0
2020-11-03 10:14:00-05:00,54293.5,-965.0
2020-11-05 22:58:00-05:00,54124.0,-1134.5
2020-11-11 16:00:00-05:00,54242.5,-1016.0
2020-11-12 11:40:00-05:00,54057.5,-1201.0
2020-11-13 16:00:00-05:00,54053.5,-1205.0
2020-11-16 16:00:00-05:00,54111.0,-1147.5
2020-11-19 23:43:00-05:00,54543.0,-715.5
2020-11-23 10:06:00-05:00,54351.0,-907.5
2020-11-24 19:08:00-05:00,54683.0,-575.5
2020-11-27 13:14:00-05:00,54756.0,-502.5
2020-11-30 16:03:00-05:00,54758.0,-500.5
2020-12-01 13:48:00-05:00,55192.0,-66.5
2020-12-02 16:00:00-05:00,55315.5,0.0
2020-12-03 11:09:00-05:00,55109.5,-206.0
2020-12-04 16:00:00-05:00,55244.5,-71.0
2020-12-07 16:00:00-05:00,55261.5,-54.0
2020-12-09 10:11:00-05:00,55068.5,-247.0
2020-12-10 16:00:00-05:00,55183.0,-132.5
2020-12-11 11:36:00-05:00,55017.0,-298.5
2020-12-14 16:00:00-05:00,54950.5,-365.0
2020-12-16 16:00:00-05:00,55129.5,-186.0
2020-12-22 11:01:00-05:00,54939.5,-376.0
2021-01-05 21:52:00-05:00,54718.0,-597.5
2021-01-07 16:00:00-05:00,54929.0,-386.5
2021-01-08 13:22:00-05:00,54783.5,-532.0
2021-01-11 15:21:00-05:00,54586.5,-729.0
2021-01-13 16:00:00-05:00,54764.5,-551.0
2021-01-14 11:57:00-05:00,54577.5,-738.0
2021-01-20 19:57:00-05:00,54861.5,-454.0
2021-01-21 16:00:00-05:00,54953.5,-362.0
2021-01-22 10:38:00-05:00,54772.5,-543.0
2021-01-26 16:00:00-05:00,54722.5,-593.0
2021-02-01 11:01:00-05:00,54486.5,-829.0
2021-02-02 16:00:00-05:00,54528.0,-787.5
2021-02-08 11:29:00-05:00,54350.0,-965.5
2021-02-09 16:00:00-05:00,54346.0,-969.5
2021-02-11 10:59:00-05:00,54100.0,-1215.5
2021-02-12 16:59:00-05:00,54564.0,-751.5
2021-02-16 11:08:00-05:00,54356.0,-959.5
2021-02-17 16:00:00-05:00,54386.5,-929.0
2021-02-18 16:00:00-05:00,54639.5,-676.0
2021-02-24 16:00:00-05:00,54983.0,-332.5
2021-02-26 14:05:00-05:00,54770.5,-545.0
2021-03-01 14:53:00-05:00,55081.5,-234.0
2021-03-09 13:02:00-05:00,55366.5,0.0
2021-03-11 16:00:00-05:00,55437.0,0.0
2021-03-12 16:00:00-05:00,55532.5,0.0
2021-03-15 11:34:00-04:00,55390.5,-142.0
2021-03-16 14:25:00-04:00,55248.5,-284.0
2021-03-17 15:00:00-04:00,55650.5,0.0
2021-03-19 16:00:00-04:00,55649.5,-1.0
2021-03-22 12:43:00-04:00,55933.5,0.0
2021-03-23 10:34:00-04:00,55687.5,-246.0
2021-03-26 14:09:00-04:00,55546.0,-387.5
2021-03-29 14:31:00-04:00,55409.5,-524.0
2021-03-30 16:00:00-04:00,55374.0,-559.5
2021-03-31 16:00:00-04:00,55511.0,-422.5
2021-04-01 16:00:00-04:00,55597.0,-336.5
2021-04-05 11:36:00-04:00,55969.0,0.0
2021-04-06 16:00:00-04:00,55899.0,-70.0
2021-04-07 21:41:00-04:00,56299.0,0.0
2021-04-08 10:09:00-04:00,56066.5,-232.5
2021-04-09 16:00:00-04:00,56282.5,-16.5
2021-04-13 16:00:00-04:00,56340.5,0.0
2021-04-15 16:00:00-04:00,56467.5,0.0
2021-04-20 10:40:00-04:00,56340.5,-127.0
2021-04-21 16:00:00-04:00,56583.5,0.0
2021-04-22 13:07:00-04:00,56385.5,-198.0
2021-04-23 11:39:00-04:00,56771.5,0.0
2021-04-26 15:00:00-04:00,57179.5,0.0
2021-04-28 12:00:00-04:00,56934.5,-245.0
2021-04-30 13:53:00-04:00,56709.5,-470.0
2021-05-03 10:52:00-04:00,56565.5,-614.0
2021-05-06 16:00:00-04:00,56718.0,-461.5
2021-05-13 11:25:00-04:00,56577.0,-602.5
2021-05-14 13:31:00-04:00,57005.0,-174.5
2021-05-18 14:23:00-04:00,56788.0,-391.5
2021-05-20 16:00:00-04:00,56962.5,-217.0
2021-05-24 16:00:00-04:00,57056.0,-123.5
2021-05-27 14:25:00-04:00,56872.0,-307.5
2021-06-02 13:22:00-04:00,56686.0,-493.5
2021-06-03 20:09:00-04:00,56500.5,-679.0
2021-06-04 16:00:00-04:00,56643.0,-536.5
2021-06-09 09:50:00-04:00,56406.0,-773.5
2021-06-11 10:47:00-04:00,56163.0,-1016.5
2021-06-14 20:25:00-04:00,56625.0,-554.5
2021-06-15 10:25:00-04:00,56394.0,-785.5
2021-06-16 11:08:00-04:00,56191.5,-988.0
2021-06-17 21:46:00-04:00,56547.5,-632.0
2021-06-21 16:00:00-04:00,56663.5,-516.0
2021-06-22 16:00:00-04:00,56814.0,-365.5
2021-06-23 11:04:00-04:00,56590.0,-589.5
2021-06-24 13:20:00-04:00,56403.0,-776.5
2021-06-28 16:00:00-04:00,56491.5,-688.0
2021-07-01 10:20:00-04:00,56275.5,-904.0
2021-07-02 16:00:00-04:00,56457.5,-722.0
2021-07-06 10:33:00-04:00,56208.5,-971.0
2021-07-08 11:01:00-04:00,56051.0,-1128.5
2021-07-09 16:00:00-04:00,56373.0,-806.5
2021-07-13 11:20:00-04:00,56727.0,-452.5
2021-07-14 11:28:00-04:00,56494.0,-685.5
2021-07-20 16:00:00-04:00,56657.5,-522.0
2021-07-21 16:00:00-04:00,56981.5,-198.0
2021-07-22 16:00:00-04:00,57069.5,-110.0
2021-07-23 16:00:00-04:00,57264.0,0.0
2021-07-26 16:00:00-04:00,57345.0,0.0
2021-07-29 16:04:00-04:00,57147.0,-198.0
2021-07-30 16:00:00-04:00,57215.0,-130.0
2021-08-03 16:00:00-04:00,57259.0,-86.0
2021-08-05 16:00:00-04:00,57413.0,0.0
2021-08-10 10:18:00-04:00,57171.5,-241.5
2021-08-12 16:00:00-04:00,57432.5,0.0
2021-08-13 16:00:00-04:00,57564.5,0.0
2021-08-17 11:42:00-04:00,57407.0,-157.5
2021-08-18 11:36:00-04:00,57205.0,-359.5
2021-08-19 16:00:00-04:00,57376.5,-188.0
2021-08-20 15:57:00-04:00,57742.5,0.0
2021-08-23 16:00:00-04:00,57971.0,0.0
2021-08-24 16:00:00-04:00,57978.0,0.0
2021-08-26 10:23:00-04:00,57756.0,-222.0
2021-08-27 16:00:00-04:00,57876.5,-101.5
2021-08-30 16:00:00-04:00,58026.0,0.0
2021-09-01 15:43:00-04:00,57806.0,-220.0
2021-09-03 16:00:00-04:00,57859.5,-166.5
2021-09-21 10:06:00-04:00,57686.0,-340.0
2021-09-22 14:14:00-04:00,57937.0,-89.0
2021-09-23 16:00:00-04:00,58004.5,-21.5
2021-09-24 16:00:00-04:00,58288.5,0.0
2021-09-29 11:35:00-04:00,58120.0,-168.5
2021-09-30 10:07:00-04:00,57981.0,-307.5
2021-10-07 16:00:00-04:00,57836.5,-452.0
2021-10-11 15:51:00-04:00,57601.5,-687.0
2021-10-13 16:00:00-04:00,57564.0,-724.5
2021-10-14 19:22:00-04:00,57809.0,-479.5
2021-10-18 14:57:00-04:00,58100.0,-188.5
2021-10-19 16:00:00-04:00,58330.0,0.0
2021-10-20 11:02:00-04:00,58105.0,-225.0
2021-10-21 16:00:00-04:00,58454.0,0.0
2021-10-22 10:50:00-04:00,58212.0,-242.0
2021-10-26 12:00:00-04:00,58036.0,-418.0
2021-10-27 16:00:00-04:00,57961.5,-492.5
2021-10-28 16:31:00-04:00,57729.5,-724.5
2021-10-29 15:52:00-04:00,58007.5,-446.5
2021-11-02 16:00:00-04:00,58012.0,-442.0
2021-11-03 15:46:00-04:00,58261.0,-193.0
2021-11-04 10:32:00-04:00,58673.0,0.0
2021-11-12 16:00:00-05:00,58884.5,0.0
2021-11-16 16:00:00-05:00,58961.5,0.0
2021-11-17 11:57:00-05:00,59330.5,0.0
2021-11-18 10:10:00-05:00,59201.0,-129.5
2021-11-19 16:00:00-05:00,59190.0,-140.5
2021-11-22 11:12:00-05:00,59001.5,-329.0
2021-11-23 10:09:00-05:00,58781.0,-549.5
2021-12-01 12:55:00-05:00,58603.0,-727.5
2021-12-07 11:37:00-05:00,58856.0,-474.5
2021-12-20 16:00:00-05:00,58790.5,-540.0
2021-12-21 16:00:00-05:00,59102.5,-228.0
2021-12-22 18:00:00-05:00,59436.5,0.0
2021-12-23 16:00:00-05:00,59544.5,0.0
2021-12-27 16:00:00-05:00,59762.5,0.0
2021-12-30 15:45:00-05:00,59607.0,-155.5
2022-01-03 16:00:00-05:00,59596.5,-166.0
2022-01-12 10:39:00-05:00,59380.0,-382.5
2022-01-20 14:12:00-05:00,59179.0,-583.5
2022-02-08 18:28:00-05:00,59554.0,-208.5
2022-02-09 16:00:00-05:00,59699.0,-63.5
2022-02-15 12:47:00-05:00,59536.0,-226.5
2022-03-10 21:50:00-05:00,59310.5,-452.0
2022-03-23 14:15:00-04:00,59121.0,-641.5
2022-03-24 15:25:00-04:00,59456.0,-306.5
2022-03-25 11:01:00-04:00,59294.5,-468.0
2022-03-29 16:00:00-04:00,59321.0,-441.5
2022-03-30 11:04:00-04:00,59081.0,-681.5
2022-04-04 16:00:00-04:00,59395.5,-367.0
2022-04-08 14:25:00-04:00,59159.5,-603.0
2022-05-04 14:00:00-04:00,59033.0,-729.5
2022-06-15 14:04:00-04:00,58852.0,-910.5
2022-07-06 16:00:00-04:00,58850.5,-912.0
2022-07-07 16:00:00-04:00,59068.5,-694.0
2022-07-08 16:00:00-04:00,59199.0,-563.5
2022-07-15 16:00:00-04:00,59233.0,-529.5
2022-07-19 13:49:00-04:00,59562.0,-200.5
2022-07-20 11:35:00-04:00,59872.0,0.0
2022-07-26 18:10:00-04:00,59884.0,0.0
2022-07-27 14:44:00-04:00,60283.0,0.0
2022-08-03 16:00:00-04:00,60605.5,0.0
2022-08-05 11:26:00-04:00,60377.0,-228.5
2022-08-10 16:00:00-04:00,60438.5,-167.0
2022-08-11 11:05:00-04:00,60307.5,-298.0
2022-08-15 16:00:00-04:00,60433.0,-172.5
2022-08-16 14:45:00-04:00,60206.0,-399.5
2022-08-18 16:00:00-04:00,60227.0,-378.5
2022-08-24 16:00:00-04:00,60261.0,-344.5
2022-08-25 10:42:00-04:00,60653.0,0.0
2022-09-01 16:00:00-04:00,60763.0,0.0
2022-09-07 10:15:00-04:00,60577.5,-185.5
2022-09-09 16:00:00-04:00,60784.0,0.0
2022-09-12 12:10:00-04:00,60650.5,-133.5
2022-09-15 10:29:00-04:00,60461.5,-322.5
2022-09-19 16:00:00-04:00,60698.0,-86.0
2022-09-20 13:29:00-04:00,60550.5,-233.5
2022-09-21 13:59:00-04:00,60874.5,0.0
2022-10-03 14:28:00-04:00,61253.5,0.0
2022-10-04 16:00:00-04:00,61366.5,0.0
2022-10-05 20:12:00-04:00,61699.5,0.0
2022-10-11 14:52:00-04:00,61515.5,-184.0
2022-10-19 12:46:00-04:00,61279.5,-420.0
2022-10-25 15:30:00-04:00,61550.5,-149.0
2022-11-02 14:36:00-04:00,61379.5,-320.0
2022-11-03 11:29:00-04:00,61214.0,-485.5
2022-11-07 16:00:00-05:00,61285.5,-414.0
2022-11-08 14:10:00-05:00,61137.0,-562.5
2022-11-11 16:00:00-05:00,61447.5,-252.0
2022-11-14 16:00:00-05:00,61376.0,-323.5
2022-11-17 16:00:00-05:00,61484.5,-215.0
2022-11-21 10:06:00-05:00,61346.0,-353.5
2022-11-22 16:00:00-05:00,61564.0,-135.5
2022-11-23 12:57:00-05:00,61324.0,-375.5
2022-11-28 10:25:00-05:00,61139.5,-560.0
2022-11-29 11:02:00-05:00,60931.5,-768.0
2022-11-30 14:11:00-05:00,61352.5,-347.0
2022-12-01 10:12:00-05:00,61189.5,-510.0
2022-12-02 16:00:00-05:00,61344.0,-355.5
2022-12-08 16:00:00-05:00,61476.5,-223.0
2022-12-12 10:49:00-05:00,61245.5,-454.0
2022-12-14 14:00:00-05:00,61091.0,-608.5
2022-12-20 16:00:00-05:00,61141.0,-558.5
2022-12-21 11:10:00-05:00,61399.0,-300.5
2022-12-29 16:00:00-05:00,61523.5,-176.0
2022-12-30 13:25:00-05:00,61382.0,-317.5
2023-01-04 14:02:00-05:00,61202.0,-497.5
2023-01-09 11:14:00-05:00,61684.0,-15.5
2023-01-11 16:00:00-05:00,61899.0,0.0
2023-01-13 15:35:00-05:00,62147.0,0.0
2023-01-17 16:00:00-05:00,62141.0,-6.0
2023-01-18 10:37:00-05:00,62008.5,-138.5
2023-01-19 15:46:00-05:00,61882.0,-265.0
2023-01-20 13:50:00-05:00,62164.0,0.0
2023-01-23 11:06:00-05:00,62489.0,0.0
2023-01-24 10:06:00-05:00,62339.0,-150.0
2023-01-25 14:17:00-05:00,62622.0,0.0
2023-01-26 16:00:00-05:00,62663.5,0.0
2023-01-27 13:38:00-05:00,62937.5,0.0
2023-01-30 10:23:00-05:00,62808.5,-129.0
2023-02-02 13:34:00-05:00,63083.5,0.0
2023-02-06 10:20:00-05:00,62941.5,-142.0
2023-02-07 12:46:00-05:00,63415.5,0.0
2023-02-13 16:00:00-05:00,63634.5,0.0
2023-02-15 09:54:00-05:00,63479.0,-155.5
2023-02-22 10:00:00-05:00,63253.0,-381.5
2023-02-27 10:36:00-05:00,63017.5,-617.0
2023-02-28 16:03:00-05:00,62881.0,-753.5
2023-03-01 10:05:00-05:00,62735.0,-899.5
2023-03-02 13:36:00-05:00,63179.0,-455.5
2023-03-03 12:55:00-05:00,63559.0,-75.5
2023-03-06 14:21:00-05:00,63360.0,-274.5
2023-03-08 13:28:00-05:00,63231.5,-403.0
2023-03-09 12:48:00-05:00,63082.0,-552.5
2023-03-14 14:08:00-04:00,62894.5,-740.0
2023-03-15 12:57:00-04:00,62710.5,-924.0
2023-03-16 11:26:00-04:00,63071.5,-563.0
2023-03-17 10:26:00-04:00,62905.5,-729.0
2023-03-20 16:00:00-04:00,63007.0,-627.5
2023-03-21 10:06:00-04:00,62801.0,-833.5
2023-03-22 14:00:00-04:00,63224.0,-410.5
2023-03-23 14:25:00-04:00,63097.0,-537.5
2023-03-24 16:00:00-04:00,63196.5,-438.0
2023-03-27 10:30:00-04:00,63063.0,-571.5
2023-03-29 10:34:00-04:00,62892.0,-742.5
2023-03-30 10:12:00-04:00,62712.0,-922.5
2023-03-31 15:08:00-04:00,62967.0,-667.5
2023-04-03 10:51:00-04:00,62720.0,-914.5
2023-04-04 11:09:00-04:00,62552.5,-1082.0
2023-04-06 12:00:00-04:00,63020.5,-614.0
2023-04-10 16:00:00-04:00,63223.0,-411.5
2023-04-13 14:14:00-04:00,63469.0,-165.5
2023-04-14 10:29:00-04:00,63286.5,-348.0
2023-04-18 09:58:00-04:00,63040.5,-594.0
2023-04-19 16:00:00-04:00,63196.5,-438.0
2023-04-20 15:16:00-04:00,63057.0,-577.5
2023-04-21 10:41:00-04:00,62817.0,-817.5
2023-04-26 10:22:00-04:00,62687.0,-947.5
2023-04-27 11:25:00-04:00,63009.0,-625.5
2023-04-28 16:00:00-04:00,63167.0,-467.5
2023-05-01 10:01:00-04:00,62960.0,-674.5
2023-05-03 11:02:00-04:00,62784.0,-850.5
2023-05-04 12:07:00-04:00,62555.0,-1079.5
2023-05-05 13:22:00-04:00,62981.0,-653.5
2023-05-09 10:29:00-04:00,62747.0,-887.5
2023-05-10 10:46:00-04:00,62543.0,-1091.5
2023-05-11 16:00:00-04:00,62575.0,-1059.5
2023-05-15 09:51:00-04:00,62369.5,-1265.0
2023-05-16 16:00:00-04:00,62322.5,-1312.0
2023-05-18 11:46:00-04:00,62573.5,-1061.0
2023-05-22 16:00:00-04:00,62531.5,-1103.0
2023-05-24 16:23:00-04:00,62967.5,-667.0
2023-05-25 16:00:00-04:00,62988.5,-646.0
2023-05-26 10:43:00-04:00,63300.5,-334.0
2023-05-31 10:14:00-04:00,63144.0,-490.5
2023-06-01 12:19:00-04:00,63409.0,-225.5
2023-06-05 14:33:00-04:00,63234.5,-400.0
2023-06-06 16:00:00-04:00,63264.0,-370.5
2023-06-08 16:00:00-04:00,63445.0,-189.5
2023-06-09 11:28:00-04:00,63287.0,-347.5
2023-06-12 14:35:00-04:00,63749.0,0.0
2023-06-14 11:27:00-04:00,64171.0,0.0
2023-06-15 14:35:00-04:00,64509.0,0.0
2023-06-20 10:15:00-04:00,64300.0,-209.0
2023-06-22 16:36:00-04:00,64650.0,0.0
2023-06-23 16:00:00-04:00,64571.0,-79.0
2023-06-26 11:06:00-04:00,64431.0,-219.0
2023-06-27 16:00:00-04:00,64670.0,0.0
2023-06-28 16:00:00-04:00,64778.5,0.0
2023-06-30 16:00:00-04:00,64783.0,0.0
2023-07-03 10:32:00-04:00,64538.5,-244.5
2023-07-05 16:00:00-04:00,64481.0,-302.0
2023-07-07 10:34:00-04:00,64355.0,-428.0
2023-07-11 16:00:00-04:00,64381.0,-402.0
2023-07-12 11:39:00-04:00,64168.0,-615.0
2023-07-13 16:00:00-04:00,64345.5,-437.5
2023-07-14 14:25:00-04:00,64171.0,-612.0
2023-07-17 16:00:00-04:00,64343.0,-440.0
2023-07-18 13:41:00-04:00,64606.0,-177.0
2023-07-19 10:55:00-04:00,64478.0,-305.0
2023-07-25 16:00:00-04:00,64479.0,-304.0
2023-07-26 15:08:00-04:00,64287.0,-496.0
2023-07-27 10:24:00-04:00,64126.0,-657.0
2023-07-28 16:00:00-04:00,64198.0,-585.0
2023-07-31 09:55:00-04:00,63955.0,-828.0
2023-08-01 10:14:00-04:00,63774.0,-1009.0
2023-08-03 16:00:00-04:00,63762.5,-1020.5
2023-08-04 14:01:00-04:00,63575.0,-1208.0
2023-08-07 16:00:00-04:00,63584.0,-1199.0
2023-08-10 11:20:00-04:00,63383.5,-1399.5
2023-08-11 11:25:00-04:00,63201.0,-1582.0
2023-08-14 15:59:00-04:00,63506.0,-1277.0
2023-08-16 11:50:00-04:00,63259.0,-1524.0
2023-08-18 16:00:00-04:00,63409.5,-1373.5
2023-08-21 11:10:00-04:00,63224.0,-1559.0
2023-08-23 10:23:00-04:00,63590.0,-1193.0
2023-08-25 10:08:00-04:00,63462.5,-1320.5
2023-08-29 11:19:00-04:00,63835.5,-947.5
2023-08-30 10:26:00-04:00,63677.0,-1106.0
2023-08-31 16:00:00-04:00,63646.0,-1137.0
2023-09-05 16:00:00-04:00,63697.5,-1085.5
2023-09-06 10:00:00-04:00,63498.5,-1284.5
2023-09-07 16:00:00-04:00,63524.5,-1258.5
2023-09-08 14:59:00-04:00,63337.0,-1446.0
2023-09-12 10:27:00-04:00,63205.5,-1577.5
2023-09-13 16:00:00-04:00,63207.5,-1575.5
2023-09-14 16:00:00-04:00,63271.0,-1512.0
2023-09-18 16:00:00-04:00,63233.5,-1549.5
2023-09-19 16:00:00-04:00,63267.5,-1515.5
2023-09-20 10:14:00-04:00,63023.5,-1759.5
2023-09-22 14:12:00-04:00,62797.5,-1985.5
2023-09-25 16:00:00-04:00,62943.5,-1839.5
2023-09-27 10:01:00-04:00,62748.5,-2034.5
2023-09-28 11:48:00-04:00,63051.5,-1731.5
2023-09-29 10:24:00-04:00,62836.5,-1946.5
2023-10-03 10:02:00-04:00,62699.5,-2083.5
2023-10-04 16:00:00-04:00,62820.5,-1962.5
2023-10-06 11:43:00-04:00,63237.5,-1545.5
2023-10-09 20:29:00-04:00,63588.5,-1194.5
2023-10-10 11:07:00-04:00,63988.5,-794.5
2023-10-11 16:02:00-04:00,63990.5,-792.5
2023-10-12 13:08:00-04:00,63751.5,-1031.5
2023-10-16 16:00:00-04:00,63797.5,-985.5
2023-10-17 16:00:00-04:00,63911.5,-871.5
2023-10-18 10:35:00-04:00,63757.5,-1025.5
2023-10-19 12:31:00-04:00,63568.5,-1214.5
2023-10-23 16:00:00-04:00,63742.0,-1041.0
2023-10-24 12:21:00-04:00,63586.0,-1197.0
2023-10-27 10:09:00-04:00,63380.0,-1403.0
2023-10-30 10:28:00-04:00,63150.5,-1632.5
2023-10-31 16:00:00-04:00,63238.5,-1544.5
2023-11-01 15:00:00-04:00,63694.5,-1088.5
2023-11-02 16:00:00-04:00,63852.5,-930.5
2023-11-03 16:00:00-04:00,64001.5,-781.5
2023-11-07 16:00:00-05:00,64166.0,-617.0
2023-11-09 10:07:00-05:00,63928.0,-855.0
2023-11-10 13:25:00-05:00,64238.0,-545.0
2023-11-13 16:00:00-05:00,64259.0,-524.0
2023-11-14 16:00:00-05:00,64332.5,-450.5
2023-11-16 10:41:00-05:00,64125.5,-657.5
2023-11-20 16:00:00-05:00,64320.5,-462.5
2023-11-27 16:00:00-05:00,64246.0,-537.0
2023-11-28 16:00:00-05:00,64389.0,-394.0
2023-12-01 10:26:00-05:00,64252.5,-530.5
2023-12-05 16:00:00-05:00,64369.5,-413.5
2023-12-07 16:00:00-05:00,64447.0,-336.0
2023-12-08 16:00:00-05:00,64573.5,-209.5
2023-12-11 16:00:00-05:00,64730.0,-53.0
2023-12-12 18:09:00-05:00,65012.0,0.0
2023-12-13 14:42:00-05:00,65436.0,0.0
2023-12-14 10:05:00-05:00,65219.0,-217.0
2023-12-15 13:41:00-05:00,65082.0,-354.0
2023-12-18 16:00:00-05:00,65263.0,-173.0
2023-12-19 16:00:00-05:00,65374.0,-62.0
2023-12-21 22:42:00-05:00,65125.0,-311.0
2023-12-22 11:00:00-05:00,64912.0,-524.0
2023-12-29 10:34:00-05:00,64705.0,-731.0
2024-01-04 15:55:00-05:00,64573.0,-863.0
2024-01-05 13:16:00-05:00,64446.5,-989.5
2024-01-08 14:11:00-05:00,64771.5,-664.5
2024-01-09 12:53:00-05:00,65249.5,-186.5
2024-01-10 14:13:00-05:00,65696.5,0.0
2024-01-12 10:00:00-05:00,65560.0,-136.5
2024-01-16 14:19:00-05:00,65402.5,-294.0
2024-01-18 12:13:00-05:00,65268.0,-428.5
2024-01-19 12:31:00-05:00,65618.0,-78.5
2024-01-24 14:23:00-05:00,65482.0,-214.5
2024-01-25 12:08:00-05:00,65256.0,-440.5
2024-01-26 12:49:00-05:00,65046.0,-650.5
2024-02-01 10:54:00-05:00,64843.0,-853.5
2024-02-07 16:00:00-05:00,64908.5,-788.0
2024-02-08 16:00:00-05:00,64920.5,-776.0
2024-02-09 10:35:00-05:00,65361.5,-335.0
2024-02-14 11:00:00-05:00,65191.5,-505.0
2024-02-15 16:00:00-05:00,65204.0,-492.5
2024-02-21 10:31:00-05:00,65065.5,-631.0
2024-02-22 14:14:00-05:00,65334.5,-362.0
2024-02-27 12:54:00-05:00,65149.5,-547.0
2024-02-28 12:39:00-05:00,64937.5,-759.0
2024-02-29 16:00:00-05:00,64896.5,-800.0
2024-03-01 12:19:00-05:00,65330.5,-366.0
2024-03-04 15:36:00-05:00,65105.5,-591.0
2024-03-06 13:33:00-05:00,64864.5,-832.0
2024-03-07 16:16:00-05:00,64726.5,-970.0
2024-03-11 16:00:00-04:00,64665.5,-1031.0
2024-03-18 11:53:00-04:00,64512.5,-1184.0
2024-03-19 16:00:00-04:00,64741.0,-955.5
2024-03-20 19:07:00-04:00,65162.0,-534.5
2024-03-22 10:40:00-04:00,64977.0,-719.5
2024-03-25 16:00:00-04:00,64994.0,-702.5
2024-03-26 10:29:00-04:00,64772.0,-924.5
2024-03-28 13:17:00-04:00,64530.0,-1166.5
2024-04-02 16:00:00-04:00,64583.0,-1113.5
2024-04-03 19:31:00-04:00,64907.0,-789.5
2024-04-05 11:55:00-04:00,65240.0,-456.5
2024-04-08 16:00:00-04:00,65163.0,-533.5
2024-04-11 13:19:00-04:00,65415.0,-281.5
2024-04-16 10:37:00-04:00,65287.0,-409.5
2024-04-19 09:52:00-04:00,65130.0,-566.5
2024-04-22 10:09:00-04:00,64885.0,-811.5
2024-04-23 20:38:00-04:00,65289.0,-407.5
2024-04-24 09:56:00-04:00,65136.0,-560.5
2024-04-25 15:24:00-04:00,65530.0,-166.5
2024-04-26 16:00:00-04:00,65652.5,-44.0
2024-05-01 14:32:00-04:00,65525.5,-171.0
2024-05-02 18:16:00-04:00,65881.5,0.0
2024-05-03 10:13:00-04:00,65735.5,-146.0
2024-05-06 16:00:00-04:00,66098.5,0.0
2024-05-07 13:50:00-04:00,65930.5,-168.0
2024-05-08 16:00:00-04:00,65977.0,-121.5
2024-05-09 16:00:00-04:00,65987.5,-111.0
2024-05-10 10:19:00-04:00,65818.0,-280.5
2024-05-14 15:54:00-04:00,66262.0,0.0
2024-05-15 12:32:00-04:00,66592.0,0.0
2024-05-16 13:25:00-04:00,66382.0,-210.0
2024-05-17 11:04:00-04:00,66176.5,-415.5
2024-05-20 16:00:00-04:00,66292.0,-300.0
2024-05-21 15:55:00-04:00,66618.0,0.0
2024-05-22 13:37:00-04:00,66369.0,-249.0
2024-05-24 09:54:00-04:00,66171.0,-447.0
2024-05-29 16:46:00-04:00,66022.0,-596.0
2024-06-04 10:14:00-04:00,65861.5,-756.5
2024-06-05 10:00:00-04:00,65679.5,-938.5
2024-06-07 16:00:00-04:00,65638.5,-979.5
2024-06-10 16:00:00-04:00,65917.5,-700.5
2024-06-11 14:04:00-04:00,66255.5,-362.5
2024-06-12 16:00:00-04:00,66259.5,-358.5
2024-06-14 16:00:00-04:00,66548.5,-69.5
2024-06-17 12:29:00-04:00,66936.5,0.0
2024-06-21 13:19:00-04:00,66688.5,-248.0
2024-06-24 10:29:00-04:00,66485.5,-451.0
2024-06-25 11:55:00-04:00,66921.5,-15.0
2024-06-26 11:11:00-04:00,66674.5,-262.0
2024-06-27 11:28:00-04:00,66428.0,-508.5
2024-06-28 10:14:00-04:00,66716.0,-220.5
2024-07-01 16:00:00-04:00,66834.0,-102.5
2024-07-02 16:00:00-04:00,67137.5,0.0
2024-07-03 11:55:00-04:00,67551.5,0.0
2024-07-05 13:39:00-04:00,67799.5,0.0
2024-07-08 10:01:00-04:00,67608.5,-191.0
2024-07-10 11:00:00-04:00,67388.5,-411.0
2024-07-12 10:36:00-04:00,67850.5,0.0
2024-07-15 13:01:00-04:00,67700.5,-150.0
2024-07-23 10:51:00-04:00,67478.0,-372.5
2024-08-12 16:00:00-04:00,67434.5,-416.0
2024-08-13 13:01:00-04:00,67782.5,-68.0
2024-08-16 16:00:00-04:00,67874.5,0.0
2024-08-19 10:19:00-04:00,67714.0,-160.5
2024-08-20 10:17:00-04:00,67579.0,-295.5
2024-08-21 10:41:00-04:00,67961.0,0.0
2024-08-23 10:48:00-04:00,67733.0,-228.0
2024-09-09 10:30:00-04:00,67553.0,-408.0
2024-09-10 16:00:00-04:00,67592.0,-369.0
2024-09-11 14:29:00-04:00,68013.0,0.0
2024-09-17 10:59:00-04:00,67842.0,-171.0
2024-09-19 16:00:00-04:00,67838.5,-174.5
2024-09-23 13:01:00-04:00,67697.0,-316.0
2024-09-24 16:00:00-04:00,67712.5,-300.5
2024-09-25 13:00:00-04:00,67543.0,-470.0
2024-09-30 16:00:00-04:00,67485.5,-527.5
2024-10-03 13:00:00-04:00,67247.0,-766.0
2024-10-04 16:00:00-04:00,67176.0,-837.0
2024-10-07 14:04:00-04:00,67048.5,-964.5
2024-10-08 10:35:00-04:00,67432.5,-580.5
2024-10-09 11:50:00-04:00,67686.5,-326.5
2024-10-11 16:00:00-04:00,67803.0,-210.0
2024-10-14 11:01:00-04:00,67649.5,-363.5
2024-10-16 16:00:00-04:00,67603.0,-410.0
2024-10-18 16:00:00-04:00,67554.5,-458.5
2024-10-21 10:40:00-04:00,67415.0,-598.0
2024-10-22 16:00:00-04:00,67521.0,-492.0
2024-10-24 16:00:00-04:00,67540.5,-472.5
2024-10-25 13:44:00-04:00,67330.5,-682.5
2024-10-29 15:22:00-04:00,67728.5,-284.5
2024-11-01 16:00:00-04:00,67715.0,-298.0
2024-11-05 21:19:00-05:00,68125.0,0.0
2024-11-07 16:00:00-05:00,68372.0,0.0
2024-11-08 16:00:00-05:00,68392.0,0.0
2024-11-12 10:08:00-05:00,68258.5,-133.5
2024-11-13 15:54:00-05:00,68059.5,-332.5
2024-11-18 11:39:00-05:00,68326.5,-65.5
2024-11-19 13:56:00-05:00,68703.5,0.0
2024-11-20 16:20:00-05:00,68453.5,-250.0
2024-11-26 10:00:00-05:00,68314.5,-389.0
2024-11-29 13:14:00-05:00,68535.0,-168.5
2024-12-02 16:00:00-05:00,68679.5,-24.0
2024-12-03 21:59:00-05:00,68949.5,0.0
2024-12-04 15:50:00-05:00,69365.5,0.0
2024-12-06 16:00:00-05:00,69533.0,0.0
2024-12-09 10:26:00-05:00,69404.5,-128.5
2024-12-10 10:58:00-05:00,69237.5,-295.5
2024-12-11 15:17:00-05:00,69561.5,0.0
2024-12-12 15:13:00-05:00,69381.5,-180.0
2024-12-13 10:40:00-05:00,69153.5,-408.0
2024-12-16 12:40:00-05:00,69401.5,-160.0
2024-12-17 14:32:00-05:00,69224.5,-337.0
2024-12-18 14:01:00-05:00,69031.5,-530.0
2024-12-23 16:00:00-05:00,69199.0,-362.5
2024-12-24 12:59:00-05:00,69508.0,-53.5
2024-12-26 19:20:00-05:00,69282.0,-279.5
2025-01-22 16:00:00-05:00,69305.0,-256.5
2025-01-23 15:58:00-05:00,69743.0,0.0
2025-01-24 10:16:00-05:00,69519.0,-224.0
2025-01-31 13:34:00-05:00,69363.0,-380.0
2025-02-05 10:03:00-05:00,69218.0,-525.0
2025-02-06 14:33:00-05:00,69073.5,-669.5
2025-02-10 16:00:00-05:00,69128.5,-614.5
2025-02-11 16:00:00-05:00,69068.0,-675.0
2025-02-13 16:00:00-05:00,69347.5,-395.5
2025-02-14 16:00:00-05:00,69520.5,-222.5
2025-02-19 20:42:00-05:00,69311.5,-431.5
2025-03-25 16:00:00-04:00,69439.5,-303.5
2025-05-01 15:56:00-04:00,69224.0,-519.0
2025-05-05 20:24:00-04:00,69058.5,-684.5
2025-05-06 18:01:00-04:00,69412.5,-330.5
2025-05-07 10:54:00-04:00,69191.5,-551.5
2025-05-08 20:28:00-04:00,68994.5,-748.5
2025-05-13 12:35:00-04:00,69448.5,-294.5
2025-05-14 13:21:00-04:00,69253.0,-490.0
2025-05-15 13:18:00-04:00,69564.0,-179.0
2025-05-16 16:54:00-04:00,69396.0,-347.0
2025-05-20 11:00:00-04:00,69183.0,-560.0
2025-05-21 13:24:00-04:00,68984.5,-758.5
2025-05-27 13:48:00-04:00,69351.5,-391.5
2025-05-28 19:15:00-04:00,69689.5,-53.5
2025-05-30 11:41:00-04:00,69484.0,-259.0
2025-06-03 16:00:00-04:00,69645.5,-97.5
2025-06-06 10:32:00-04:00,69461.0,-282.0
2025-06-09 21:30:00-04:00,69723.0,-20.0
2025-06-10 11:32:00-04:00,69576.5,-166.5
2025-06-11 12:07:00-04:00,69440.5,-302.5
2025-06-12 19:59:00-04:00,69295.0,-448.0
2025-06-16 19:59:00-04:00,69118.0,-625.0
2025-06-17 12:59:00-04:00,68947.0,-796.0
2025-06-18 14:57:00-04:00,68790.5,-952.5
2025-06-19 18:01:00-04:00,68819.0,-924.0
2025-06-24 16:00:00-04:00,68954.5,-788.5
2025-06-26 16:00:00-04:00,69114.5,-628.5
2025-06-27 14:19:00-04:00,68986.5,-756.5
2025-06-30 16:00:00-04:00,68992.0,-751.0
2025-07-01 10:22:00-04:00,68859.0,-884.0
2025-07-02 21:25:00-04:00,69141.0,-602.0
2025-07-03 18:00:00-04:00,69225.0,-518.0
2025-07-08 12:35:00-04:00,68985.0,-758.0
2025-07-09 10:36:00-04:00,68787.5,-955.5
2025-07-11 16:00:00-04:00,68766.0,-977.0
2025-07-17 14:00:00-04:00,69047.0,-696.0
2025-07-21 16:00:00-04:00,68997.0,-746.0
2025-07-23 16:00:00-04:00,69071.0,-672.0
2025-07-25 16:00:00-04:00,69208.0,-535.0
2025-07-28 11:19:00-04:00,68987.0,-756.0
2025-07-30 14:56:00-04:00,68843.5,-899.5
2025-08-05 10:17:00-04:00,68687.5,-1055.5
2025-08-07 10:10:00-04:00,68548.5,-1194.5
2025-08-08 16:00:00-04:00,68735.5,-1007.5
2025-08-11 14:04:00-04:00,68493.5,-1249.5
2025-08-12 16:00:00-04:00,68738.5,-1004.5
2025-08-14 16:00:00-04:00,68713.0,-1030.0
2025-08-18 10:30:00-04:00,68498.0,-1245.0
2025-08-25 20:03:00-04:00,68345.5,-1397.5
2025-08-26 16:00:00-04:00,68618.5,-1124.5
2025-08-27 16:20:00-04:00,69040.5,-702.5
2025-08-28 16:00:00-04:00,69050.0,-693.0
2025-09-04 23:58:00-04:00,69428.0,-315.0
2025-09-08 13:52:00-04:00,69267.5,-475.5
2025-09-11 16:00:00-04:00,69280.5,-462.5
2025-09-12 16:00:00-04:00,69337.0,-406.0
2025-09-15 22:31:00-04:00,69791.0,0.0
2025-09-19 10:47:00-04:00,69558.0,-233.0
2025-09-22 12:11:00-04:00,69916.0,0.0
2025-09-29 11:36:00-04:00,69750.0,-166.0
2025-09-30 13:24:00-04:00,69563.0,-353.0
2025-10-01 20:45:00-04:00,69971.0,0.0
2025-10-06 16:00:00-04:00,69880.5,-90.5
2025-10-08 15:51:00-04:00,70213.5,0.0
2025-10-10 10:57:00-04:00,70027.5,-186.0
2025-10-20 16:00:00-04:00,70167.5,-46.0
2025-10-21 16:03:00-04:00,70006.5,-207.0
2025-10-22 10:27:00-04:00,69801.0,-412.5
2025-10-27 16:44:00-04:00,70099.0,-114.5
2025-10-28 16:00:00-04:00,70170.0,-43.5
2025-10-29 10:50:00-04:00,69992.0,-221.5
2025-11-10 10:59:00-05:00,69753.0,-460.5
2025-11-11 16:00:00-05:00,69766.5,-447.0
2025-11-28 13:14:00-05:00,69882.0,-331.5
2025-12-09 16:00:00-05:00,69933.0,-280.5
2025-12-11 16:53:00-05:00,70326.0,0.0
2025-12-23 10:03:00-05:00,70119.5,-206.5
2025-12-24 13:14:00-05:00,70241.5,-84.5
2025-12-30 15:59:00-05:00,70115.0,-211.0
2026-01-07 22:46:00-05:00,69912.5,-413.5
2026-01-19 18:00:00-05:00,70010.0,-316.0
2026-01-23 16:00:00-05:00,70127.5,-198.5
2026-01-27 16:00:00-05:00,70211.5,-114.5
2026-02-16 20:52:00-05:00,70071.0,-255.0
