timestamp,equity,drawdown
2019-05-08 20:46:00-04:00,49778.0,0.0
2019-05-09 20:24:00-04:00,50100.0,0.0
2019-05-10 09:56:00-04:00,49908.0,-192.0
2019-05-14 16:00:00-04:00,49983.0,-117.0
2019-05-15 11:25:00-04:00,50339.0,0.0
2019-05-17 15:16:00-04:00,50130.0,-209.0
2019-05-20 16:00:00-04:00,50019.0,-320.0
2019-06-18 16:00:00-04:00,49936.0,-403.0
2019-06-19 16:00:00-04:00,49982.0,-357.0
2019-07-10 11:18:00-04:00,49755.0,-584.0
2019-08-06 10:14:00-04:00,49584.0,-755.0
2019-08-07 15:00:00-04:00,49968.0,-371.0
2019-08-08 12:33:00-04:00,50412.0,0.0
2019-08-13 16:00:00-04:00,50579.0,0.0
2019-08-23 10:10:00-04:00,50375.0,-204.0
2019-08-28 16:00:00-04:00,50528.0,-51.0
2019-09-03 10:04:00-04:00,50348.0,-231.0
2019-09-11 19:22:00-04:00,50810.0,0.0
2019-09-12 10:51:00-04:00,50612.0,-198.0
2019-09-25 14:11:00-04:00,51044.0,0.0
2019-09-30 20:44:00-04:00,51468.0,0.0
2019-10-03 16:00:00-04:00,51731.0,0.0
2019-10-04 16:00:00-04:00,51984.5,0.0
2019-12-13 16:00:00-05:00,51969.5,-15.0
2020-01-27 16:00:00-05:00,51906.0,-78.5
2020-02-03 16:00:00-05:00,51943.5,-41.0
2020-02-04 16:42:00-05:00,52303.5,0.0
2020-02-06 16:00:00-05:00,52449.5,0.0
2020-02-18 16:00:00-05:00,52522.5,0.0
2020-02-27 11:38:00-05:00,52318.0,-204.5
2020-03-04 16:00:00-05:00,52583.0,0.0
2020-03-05 12:42:00-05:00,52414.5,-168.5
2020-03-06 14:08:00-05:00,52208.0,-375.0
2020-03-10 10:46:00-04:00,51986.0,-597.0
2020-03-24 14:04:00-04:00,51757.5,-825.5
2020-03-27 15:50:00-04:00,51520.0,-1063.0
2020-03-30 20:05:00-04:00,51870.0,-713.0
2020-03-31 10:40:00-04:00,52332.0,-251.0
2020-04-01 12:27:00-04:00,52178.5,-404.5
2020-04-02 16:00:00-04:00,52354.5,-228.5
2020-04-06 15:32:00-04:00,52662.5,0.0
2020-04-08 16:00:00-04:00,52849.5,0.0
2020-04-14 16:00:00-04:00,53106.0,0.0
2020-04-15 16:00:00-04:00,53121.0,0.0
2020-04-16 12:31:00-04:00,52899.0,-222.0
2020-04-20 15:05:00-04:00,52772.0,-349.0
2020-04-22 16:00:00-04:00,52937.0,-184.0
2020-04-23 12:45:00-04:00,52762.5,-358.5
2020-04-27 10:59:00-04:00,52590.5,-530.5
2020-04-29 15:22:00-04:00,52832.5,-288.5
2020-05-01 11:30:00-04:00,52697.0,-424.0
2020-05-04 11:40:00-04:00,53033.0,-88.0
2020-05-05 15:37:00-04:00,52829.0,-292.0
2020-05-06 15:49:00-04:00,52693.5,-427.5
2020-05-08 16:00:00-04:00,52768.5,-352.5
2020-05-11 16:00:00-04:00,52929.0,-192.0
2020-05-13 11:38:00-04:00,52714.0,-407.0
2020-05-14 20:00:00-04:00,52985.0,-136.0
2020-05-15 16:00:00-04:00,53188.0,0.0
2020-05-18 09:54:00-04:00,52998.0,-190.0
2020-05-19 15:51:00-04:00,52750.0,-438.0
2020-05-20 16:00:00-04:00,52906.0,-282.0
2020-05-22 16:00:00-04:00,53031.0,-157.0
2020-05-28 21:15:00-04:00,52862.5,-325.5
2020-05-29 10:08:00-04:00,52643.5,-544.5
2020-06-01 16:00:00-04:00,52724.5,-463.5
2020-06-03 12:09:00-04:00,52510.5,-677.5
2020-06-04 11:12:00-04:00,52324.5,-863.5
2020-06-05 16:00:00-04:00,52409.5,-778.5
2020-06-09 15:20:00-04:00,52817.5,-370.5
2020-06-10 10:56:00-04:00,52622.5,-565.5
2020-06-11 11:01:00-04:00,52426.5,-761.5
2020-06-15 14:01:00-04:00,52780.5,-407.5
2020-06-16 10:41:00-04:00,52552.5,-635.5
2020-06-17 09:57:00-04:00,52381.5,-806.5
2020-06-18 10:33:00-04:00,52194.5,-993.5
2020-06-19 10:46:00-04:00,51948.5,-1239.5
2020-06-22 12:16:00-04:00,52398.5,-789.5
2020-06-29 16:00:00-04:00,52610.5,-577.5
2020-06-30 20:00:00-04:00,52821.0,-367.0
2020-07-01 16:00:00-04:00,52943.5,-244.5
2020-07-02 10:29:00-04:00,52752.5,-435.5
2020-07-06 11:06:00-04:00,53208.5,0.0
2020-07-07 15:09:00-04:00,53078.0,-130.5
2020-07-08 11:18:00-04:00,52867.0,-341.5
2020-07-13 14:03:00-04:00,52723.5,-485.0
2020-07-20 13:40:00-04:00,53042.5,-166.0
2020-07-22 10:47:00-04:00,52911.0,-297.5
2020-07-23 10:12:00-04:00,52780.5,-428.0
2020-07-27 11:38:00-04:00,52571.0,-637.5
2020-07-28 15:05:00-04:00,52428.0,-780.5
2020-07-29 16:00:00-04:00,52524.0,-684.5
2020-07-30 16:09:00-04:00,52818.0,-390.5
2020-08-03 16:00:00-04:00,52783.0,-425.5
2020-08-04 14:31:00-04:00,52593.0,-615.5
2020-08-05 16:00:00-04:00,52601.0,-607.5
2020-08-07 10:21:00-04:00,52373.0,-835.5
2020-08-11 15:16:00-04:00,52185.0,-1023.5
2020-08-12 12:21:00-04:00,52452.0,-756.5
2020-08-13 14:21:00-04:00,52312.0,-896.5
2020-08-17 16:00:00-04:00,52457.5,-751.0
2020-08-20 21:00:00-04:00,52791.5,-417.0
2020-08-21 15:01:00-04:00,53220.5,0.0
2020-08-25 19:49:00-04:00,53688.5,0.0
2020-08-27 12:38:00-04:00,53473.5,-215.0
2020-08-28 10:36:00-04:00,53262.0,-426.5
2020-08-31 13:46:00-04:00,53658.0,-30.5
2020-09-01 20:37:00-04:00,54004.0,0.0
2020-09-07 09:56:00-04:00,53812.0,-192.0
2020-09-09 16:00:00-04:00,53879.0,-125.0
2020-09-10 10:45:00-04:00,53731.0,-273.0
2020-09-14 13:32:00-04:00,53559.5,-444.5
2020-09-15 10:24:00-04:00,53359.5,-644.5
2020-09-22 16:00:00-04:00,53539.0,-465.0
2020-09-25 14:19:00-04:00,53864.0,-140.0
2020-09-28 16:00:00-04:00,53896.5,-107.5
2020-09-29 10:34:00-04:00,53659.5,-344.5
2020-09-30 14:09:00-04:00,53941.5,-62.5
2020-10-02 11:53:00-04:00,53692.0,-312.0
2020-10-05 16:00:00-04:00,54073.0,0.0
2020-10-06 10:44:00-04:00,53872.0,-201.0
2020-10-09 16:01:00-04:00,54228.0,0.0
2020-10-13 13:57:00-04:00,53979.0,-249.0
2020-10-14 10:25:00-04:00,53817.0,-411.0
2020-10-15 10:43:00-04:00,53588.5,-639.5
2020-10-16 11:10:00-04:00,53397.5,-830.5
2020-10-20 11:00:00-04:00,53250.5,-977.5
2020-10-21 11:15:00-04:00,53051.0,-1177.0
2020-10-26 10:49:00-04:00,52839.5,-1388.5
2020-10-27 10:22:00-04:00,52694.0,-1534.0
2020-10-29 14:00:00-04:00,52994.0,-1234.0
2020-11-02 10:43:00-05:00,52837.0,-1391.0
2020-11-03 10:14:00-05:00,53263.0,-965.0
2020-11-05 22:58:00-05:00,53093.5,-1134.5
2020-11-11 16:00:00-05:00,53212.0,-1016.0
2020-11-12 11:40:00-05:00,53027.0,-1201.0
2020-11-13 16:00:00-05:00,53023.0,-1205.0
2020-11-16 16:00:00-05:00,53080.5,-1147.5
2020-11-19 23:43:00-05:00,53512.5,-715.5
2020-11-23 10:06:00-05:00,53320.5,-907.5
2020-11-24 19:08:00-05:00,53652.5,-575.5
2020-11-27 13:14:00-05:00,53725.5,-502.5
2020-11-30 16:03:00-05:00,53727.5,-500.5
2020-12-01 13:48:00-05:00,54161.5,-66.5
2020-12-02 16:00:00-05:00,54285.0,0.0
2020-12-03 11:09:00-05:00,54079.0,-206.0
2020-12-04 16:00:00-05:00,54214.0,-71.0
2020-12-07 16:00:00-05:00,54231.0,-54.0
2020-12-09 10:11:00-05:00,54038.0,-247.0
2020-12-10 16:00:00-05:00,54152.5,-132.5
2020-12-11 11:36:00-05:00,53986.5,-298.5
2020-12-14 16:00:00-05:00,53920.0,-365.0
2020-12-22 11:01:00-05:00,53730.0,-555.0
2021-01-05 21:52:00-05:00,53508.5,-776.5
2021-01-06 16:00:00-05:00,53415.5,-869.5
2021-01-07 16:00:00-05:00,53626.5,-658.5
2021-01-08 13:22:00-05:00,53481.0,-804.0
2021-01-11 15:21:00-05:00,53284.0,-1001.0
2021-01-13 16:00:00-05:00,53462.0,-823.0
2021-01-20 19:57:00-05:00,53746.0,-539.0
2021-01-21 16:00:00-05:00,53838.0,-447.0
2021-01-22 10:38:00-05:00,53657.0,-628.0
2021-01-26 16:00:00-05:00,53607.0,-678.0
2021-02-01 11:01:00-05:00,53371.0,-914.0
2021-02-02 16:00:00-05:00,53412.5,-872.5
2021-02-08 11:29:00-05:00,53234.5,-1050.5
2021-02-09 16:00:00-05:00,53230.5,-1054.5
2021-02-11 10:59:00-05:00,52984.5,-1300.5
2021-02-12 16:59:00-05:00,53448.5,-836.5
2021-02-16 11:08:00-05:00,53240.5,-1044.5
2021-02-17 16:00:00-05:00,53271.0,-1014.0
2021-02-18 16:00:00-05:00,53524.0,-761.0
2021-02-24 16:00:00-05:00,53867.5,-417.5
2021-02-26 14:05:00-05:00,53655.0,-630.0
2021-03-01 14:53:00-05:00,53966.0,-319.0
2021-03-09 13:02:00-05:00,54251.0,-34.0
2021-03-11 16:00:00-05:00,54321.5,0.0
2021-03-12 16:00:00-05:00,54417.0,0.0
2021-03-15 11:34:00-04:00,54275.0,-142.0
2021-03-16 14:25:00-04:00,54133.0,-284.0
2021-03-17 15:00:00-04:00,54535.0,0.0
2021-03-19 16:00:00-04:00,54534.0,-1.0
2021-03-22 12:43:00-04:00,54818.0,0.0
2021-03-23 10:34:00-04:00,54572.0,-246.0
2021-03-25 10:49:00-04:00,54334.0,-484.0
2021-03-26 14:09:00-04:00,54192.5,-625.5
2021-03-29 14:31:00-04:00,54056.0,-762.0
2021-03-30 16:00:00-04:00,54020.5,-797.5
2021-03-31 16:00:00-04:00,54157.5,-660.5
2021-04-01 16:00:00-04:00,54243.5,-574.5
2021-04-05 11:36:00-04:00,54615.5,-202.5
2021-04-06 16:00:00-04:00,54545.5,-272.5
2021-04-07 21:41:00-04:00,54945.5,0.0
2021-04-08 10:09:00-04:00,54713.0,-232.5
2021-04-09 16:00:00-04:00,54929.0,-16.5
2021-04-13 16:00:00-04:00,54987.0,0.0
2021-04-15 16:00:00-04:00,55114.0,0.0
2021-04-20 10:40:00-04:00,54987.0,-127.0
2021-04-21 16:00:00-04:00,55230.0,0.0
2021-04-22 13:07:00-04:00,55032.0,-198.0
2021-04-23 11:39:00-04:00,55418.0,0.0
2021-04-26 15:00:00-04:00,55826.0,0.0
2021-04-28 12:00:00-04:00,55581.0,-245.0
2021-04-30 13:53:00-04:00,55356.0,-470.0
2021-05-03 10:52:00-04:00,55212.0,-614.0
2021-05-06 16:00:00-04:00,55364.5,-461.5
2021-05-13 11:25:00-04:00,55223.5,-602.5
2021-05-14 13:31:00-04:00,55651.5,-174.5
2021-05-18 14:23:00-04:00,55434.5,-391.5
2021-05-20 16:00:00-04:00,55609.0,-217.0
2021-05-24 16:00:00-04:00,55702.5,-123.5
2021-05-27 14:25:00-04:00,55518.5,-307.5
2021-06-02 13:22:00-04:00,55332.5,-493.5
2021-06-03 20:09:00-04:00,55147.0,-679.0
2021-06-04 16:00:00-04:00,55289.5,-536.5
2021-06-09 09:50:00-04:00,55052.5,-773.5
2021-06-11 10:47:00-04:00,54809.5,-1016.5
2021-06-14 20:25:00-04:00,55271.5,-554.5
2021-06-15 10:25:00-04:00,55040.5,-785.5
2021-06-16 11:08:00-04:00,54838.0,-988.0
2021-06-17 21:46:00-04:00,55194.0,-632.0
2021-06-21 16:00:00-04:00,55310.0,-516.0
2021-06-22 16:00:00-04:00,55460.5,-365.5
2021-06-23 11:04:00-04:00,55236.5,-589.5
2021-06-24 13:20:00-04:00,55049.5,-776.5
2021-06-28 16:00:00-04:00,55138.0,-688.0
2021-07-01 10:20:00-04:00,54922.0,-904.0
2021-07-02 16:00:00-04:00,55104.0,-722.0
2021-07-06 10:33:00-04:00,54855.0,-971.0
2021-07-08 11:01:00-04:00,54697.5,-1128.5
2021-07-09 16:00:00-04:00,55019.5,-806.5
2021-07-13 11:20:00-04:00,55373.5,-452.5
2021-07-14 11:28:00-04:00,55140.5,-685.5
2021-07-20 16:00:00-04:00,55304.0,-522.0
2021-07-21 16:00:00-04:00,55628.0,-198.0
2021-07-22 16:00:00-04:00,55716.0,-110.0
2021-07-23 16:00:00-04:00,55910.5,0.0
2021-07-26 16:00:00-04:00,55991.5,0.0
2021-07-29 16:04:00-04:00,55793.5,-198.0
2021-07-30 16:00:00-04:00,55861.5,-130.0
2021-08-03 16:00:00-04:00,55905.5,-86.0
2021-08-05 16:00:00-04:00,56059.5,0.0
2021-08-12 16:00:00-04:00,56320.5,0.0
2021-08-13 16:00:00-04:00,56452.5,0.0
2021-08-17 11:42:00-04:00,56295.0,-157.5
2021-08-18 11:36:00-04:00,56093.0,-359.5
2021-08-19 16:00:00-04:00,56264.5,-188.0
2021-08-20 15:57:00-04:00,56630.5,0.0
2021-08-23 16:00:00-04:00,56859.0,0.0
2021-08-24 16:00:00-04:00,56866.0,0.0
2021-08-26 10:23:00-04:00,56644.0,-222.0
2021-08-27 16:00:00-04:00,56764.5,-101.5
2021-08-30 16:00:00-04:00,56914.0,0.0
2021-09-01 15:43:00-04:00,56694.0,-220.0
2021-09-03 16:00:00-04:00,56747.5,-166.5
2021-09-21 10:06:00-04:00,56574.0,-340.0
2021-09-22 14:14:00-04:00,56825.0,-89.0
2021-09-23 16:00:00-04:00,56892.5,-21.5
2021-09-24 16:00:00-04:00,57176.5,0.0
2021-09-29 11:35:00-04:00,57008.0,-168.5
2021-09-30 10:07:00-04:00,56869.0,-307.5
2021-10-05 13:40:00-04:00,57183.0,0.0
2021-10-07 16:00:00-04:00,57038.5,-144.5
2021-10-11 15:51:00-04:00,56803.5,-379.5
2021-10-13 16:00:00-04:00,56766.0,-417.0
2021-10-14 19:22:00-04:00,57011.0,-172.0
2021-10-18 14:57:00-04:00,57302.0,0.0
2021-10-19 16:00:00-04:00,57532.0,0.0
2021-10-21 16:00:00-04:00,57881.0,0.0
2021-10-22 10:50:00-04:00,57639.0,-242.0
2021-10-26 12:00:00-04:00,57463.0,-418.0
2021-10-27 16:00:00-04:00,57388.5,-492.5
2021-10-28 16:31:00-04:00,57156.5,-724.5
2021-10-29 15:52:00-04:00,57434.5,-446.5
2021-11-02 16:00:00-04:00,57439.0,-442.0
2021-11-03 15:46:00-04:00,57688.0,-193.0
2021-11-04 10:32:00-04:00,58100.0,0.0
2021-11-10 13:15:00-05:00,57899.0,-201.0
2021-11-12 16:00:00-05:00,58110.5,0.0
2021-11-16 16:00:00-05:00,58187.5,0.0
2021-11-17 11:57:00-05:00,58556.5,0.0
2021-11-18 10:10:00-05:00,58427.0,-129.5
2021-11-19 16:00:00-05:00,58416.0,-140.5
2021-11-22 11:12:00-05:00,58227.5,-329.0
2021-11-23 10:09:00-05:00,58007.0,-549.5
2021-11-24 16:00:00-05:00,58251.0,-305.5
2021-11-29 15:16:00-05:00,58550.0,-6.5
2021-11-30 10:46:00-05:00,58321.0,-235.5
2021-12-01 12:55:00-05:00,58143.0,-413.5
2021-12-07 11:37:00-05:00,58396.0,-160.5
2021-12-08 16:00:00-05:00,58452.0,-104.5
2021-12-20 16:00:00-05:00,58386.5,-170.0
2021-12-21 16:00:00-05:00,58698.5,0.0
2021-12-22 18:00:00-05:00,59032.5,0.0
2021-12-23 16:00:00-05:00,59140.5,0.0
2021-12-27 16:00:00-05:00,59358.5,0.0
2021-12-30 15:45:00-05:00,59203.0,-155.5
2022-01-12 10:39:00-05:00,58986.5,-372.0
2022-01-20 14:12:00-05:00,58785.5,-573.0
2022-02-08 18:28:00-05:00,59160.5,-198.0
2022-02-09 16:00:00-05:00,59305.5,-53.0
2022-02-15 12:47:00-05:00,59142.5,-216.0
2022-03-01 10:45:00-05:00,58922.0,-436.5
2022-03-10 21:50:00-05:00,58696.5,-662.0
2022-03-23 14:15:00-04:00,58507.0,-851.5
2022-03-24 15:25:00-04:00,58842.0,-516.5
2022-03-25 11:01:00-04:00,58680.5,-678.0
2022-03-30 11:04:00-04:00,58440.5,-918.0
2022-04-04 16:00:00-04:00,58755.0,-603.5
2022-04-08 14:25:00-04:00,58519.0,-839.5
2022-05-04 14:00:00-04:00,58392.5,-966.0
2022-05-17 16:00:00-04:00,58421.5,-937.0
2022-05-27 16:00:00-04:00,58739.0,-619.5
2022-06-01 10:06:00-04:00,58565.5,-793.0
2022-06-06 11:13:00-04:00,58358.0,-1000.5
2022-06-08 12:39:00-04:00,58153.0,-1205.5
2022-06-15 14:04:00-04:00,57972.0,-1386.5
2022-07-06 16:00:00-04:00,57970.5,-1388.0
2022-07-07 16:00:00-04:00,58188.5,-1170.0
2022-07-08 16:00:00-04:00,58319.0,-1039.5
2022-07-15 16:00:00-04:00,58353.0,-1005.5
2022-07-19 13:49:00-04:00,58682.0,-676.5
2022-07-20 11:35:00-04:00,58992.0,-366.5
2022-07-22 10:00:00-04:00,58804.0,-554.5
2022-07-26 18:10:00-04:00,58816.0,-542.5
2022-07-27 14:44:00-04:00,59215.0,-143.5
2022-08-03 16:00:00-04:00,59537.5,0.0
2022-08-04 10:17:00-04:00,59356.0,-181.5
2022-08-05 11:26:00-04:00,59127.5,-410.0
2022-08-10 16:00:00-04:00,59189.0,-348.5
2022-08-11 11:05:00-04:00,59058.0,-479.5
2022-08-15 16:00:00-04:00,59183.5,-354.0
2022-08-16 14:45:00-04:00,58956.5,-581.0
2022-08-18 16:00:00-04:00,58977.5,-560.0
2022-08-23 18:00:00-04:00,58761.5,-776.0
2022-08-24 16:00:00-04:00,58795.5,-742.0
2022-08-25 10:42:00-04:00,59187.5,-350.0
2022-09-01 16:00:00-04:00,59297.5,-240.0
2022-09-07 10:15:00-04:00,59112.0,-425.5
2022-09-09 16:00:00-04:00,59318.5,-219.0
2022-09-12 12:10:00-04:00,59185.0,-352.5
2022-09-14 10:30:00-04:00,58986.0,-551.5
2022-09-15 10:29:00-04:00,58797.0,-740.5
2022-09-16 11:38:00-04:00,58635.0,-902.5
2022-09-19 16:00:00-04:00,58871.5,-666.0
2022-09-20 13:29:00-04:00,58724.0,-813.5
2022-09-21 13:59:00-04:00,59048.0,-489.5
2022-10-03 14:28:00-04:00,59427.0,-110.5
2022-10-04 16:00:00-04:00,59540.0,0.0
2022-10-05 20:12:00-04:00,59873.0,0.0
2022-10-11 14:52:00-04:00,59689.0,-184.0
2022-10-19 12:46:00-04:00,59453.0,-420.0
2022-10-25 15:30:00-04:00,59724.0,-149.0
2022-10-26 16:08:00-04:00,59529.5,-343.5
2022-11-02 14:36:00-04:00,59358.5,-514.5
2022-11-03 11:29:00-04:00,59193.0,-680.0
2022-11-08 14:10:00-05:00,59044.5,-828.5
2022-11-11 16:00:00-05:00,59355.0,-518.0
2022-11-14 16:00:00-05:00,59283.5,-589.5
2022-11-17 16:00:00-05:00,59392.0,-481.0
2022-11-21 10:06:00-05:00,59253.5,-619.5
2022-11-22 16:00:00-05:00,59471.5,-401.5
2022-11-23 12:57:00-05:00,59231.5,-641.5
2022-11-28 10:25:00-05:00,59047.0,-826.0
2022-11-29 11:02:00-05:00,58839.0,-1034.0
2022-11-30 14:11:00-05:00,59260.0,-613.0
2022-12-01 10:12:00-05:00,59097.0,-776.0
2022-12-02 16:00:00-05:00,59251.5,-621.5
2022-12-08 16:00:00-05:00,59384.0,-489.0
2022-12-09 16:00:00-05:00,59223.5,-649.5
2022-12-12 10:49:00-05:00,58992.5,-880.5
2022-12-14 14:00:00-05:00,58838.0,-1035.0
2022-12-16 10:06:00-05:00,58672.5,-1200.5
2022-12-20 16:00:00-05:00,58722.5,-1150.5
2022-12-21 11:10:00-05:00,58980.5,-892.5
2022-12-29 16:00:00-05:00,59105.0,-768.0
2022-12-30 13:25:00-05:00,58963.5,-909.5
2023-01-04 14:02:00-05:00,58783.5,-1089.5
2023-01-09 11:14:00-05:00,59265.5,-607.5
2023-01-11 16:00:00-05:00,59480.5,-392.5
2023-01-13 15:35:00-05:00,59728.5,-144.5
2023-01-17 16:00:00-05:00,59722.5,-150.5
2023-01-18 10:37:00-05:00,59590.0,-283.0
2023-01-19 15:46:00-05:00,59463.5,-409.5
2023-01-20 13:50:00-05:00,59745.5,-127.5
2023-01-23 11:06:00-05:00,60070.5,0.0
2023-01-24 10:06:00-05:00,59920.5,-150.0
2023-01-25 14:17:00-05:00,60203.5,0.0
2023-01-27 13:38:00-05:00,60477.5,0.0
2023-01-30 10:23:00-05:00,60348.5,-129.0
2023-01-31 16:00:00-05:00,60553.0,0.0
2023-02-02 13:34:00-05:00,60828.0,0.0
2023-02-06 10:20:00-05:00,60686.0,-142.0
2023-02-07 12:46:00-05:00,61160.0,0.0
2023-02-13 16:00:00-05:00,61379.0,0.0
2023-02-15 09:54:00-05:00,61223.5,-155.5
2023-02-22 10:00:00-05:00,60997.5,-381.5
2023-02-27 10:36:00-05:00,60762.0,-617.0
2023-02-28 16:03:00-05:00,60625.5,-753.5
2023-03-01 10:05:00-05:00,60479.5,-899.5
2023-03-02 13:36:00-05:00,60923.5,-455.5
2023-03-03 12:55:00-05:00,61303.5,-75.5
2023-03-06 14:21:00-05:00,61104.5,-274.5
2023-03-08 13:28:00-05:00,60976.0,-403.0
2023-03-09 12:48:00-05:00,60826.5,-552.5
2023-03-14 14:08:00-04:00,60639.0,-740.0
2023-03-15 12:57:00-04:00,60455.0,-924.0
2023-03-16 11:26:00-04:00,60816.0,-563.0
2023-03-17 10:26:00-04:00,60650.0,-729.0
2023-03-20 16:00:00-04:00,60751.5,-627.5
2023-03-21 10:06:00-04:00,60545.5,-833.5
2023-03-22 14:00:00-04:00,60968.5,-410.5
2023-03-23 14:25:00-04:00,60841.5,-537.5
2023-03-24 16:00:00-04:00,60941.0,-438.0
2023-03-27 10:30:00-04:00,60807.5,-571.5
2023-03-29 10:34:00-04:00,60636.5,-742.5
2023-03-30 10:12:00-04:00,60456.5,-922.5
2023-03-31 15:08:00-04:00,60711.5,-667.5
2023-04-03 10:51:00-04:00,60464.5,-914.5
2023-04-04 11:09:00-04:00,60297.0,-1082.0
2023-04-06 12:00:00-04:00,60765.0,-614.0
2023-04-10 16:00:00-04:00,60967.5,-411.5
2023-04-13 14:14:00-04:00,61213.5,-165.5
2023-04-14 10:29:00-04:00,61031.0,-348.0
2023-04-18 09:58:00-04:00,60785.0,-594.0
2023-04-19 16:00:00-04:00,60941.0,-438.0
2023-04-20 15:16:00-04:00,60801.5,-577.5
2023-04-21 10:41:00-04:00,60561.5,-817.5
2023-04-26 10:22:00-04:00,60431.5,-947.5
2023-04-27 11:25:00-04:00,60753.5,-625.5
2023-04-28 16:00:00-04:00,60911.5,-467.5
2023-05-01 10:01:00-04:00,60704.5,-674.5
2023-05-03 11:02:00-04:00,60528.5,-850.5
2023-05-04 12:07:00-04:00,60299.5,-1079.5
2023-05-05 13:22:00-04:00,60725.5,-653.5
2023-05-09 10:29:00-04:00,60491.5,-887.5
2023-05-10 10:46:00-04:00,60287.5,-1091.5
2023-05-11 16:00:00-04:00,60319.5,-1059.5
2023-05-15 09:51:00-04:00,60114.0,-1265.0
2023-05-16 16:00:00-04:00,60067.0,-1312.0
2023-05-18 11:46:00-04:00,60318.0,-1061.0
2023-05-22 16:00:00-04:00,60276.0,-1103.0
2023-05-25 16:00:00-04:00,60297.0,-1082.0
2023-05-26 10:43:00-04:00,60609.0,-770.0
2023-05-31 10:14:00-04:00,60452.5,-926.5
2023-06-01 12:19:00-04:00,60717.5,-661.5
2023-06-05 14:33:00-04:00,60543.0,-836.0
2023-06-06 16:00:00-04:00,60572.5,-806.5
2023-06-08 16:00:00-04:00,60753.5,-625.5
2023-06-09 11:28:00-04:00,60595.5,-783.5
2023-06-12 14:35:00-04:00,61057.5,-321.5
2023-06-14 11:27:00-04:00,61479.5,0.0
2023-06-15 14:35:00-04:00,61817.5,0.0
2023-06-20 10:15:00-04:00,61608.5,-209.0
2023-06-22 16:36:00-04:00,61958.5,0.0
2023-06-23 16:00:00-04:00,61879.5,-79.0
2023-06-26 11:06:00-04:00,61739.5,-219.0
2023-06-27 16:00:00-04:00,61978.5,0.0
2023-06-28 16:00:00-04:00,62087.0,0.0
2023-06-30 16:00:00-04:00,62091.5,0.0
2023-07-03 10:32:00-04:00,61847.0,-244.5
2023-07-05 16:00:00-04:00,61789.5,-302.0
2023-07-07 10:34:00-04:00,61663.5,-428.0
2023-07-11 16:00:00-04:00,61689.5,-402.0
2023-07-12 11:39:00-04:00,61476.5,-615.0
2023-07-13 16:00:00-04:00,61654.0,-437.5
2023-07-14 14:25:00-04:00,61479.5,-612.0
2023-07-17 16:00:00-04:00,61651.5,-440.0
2023-07-18 13:41:00-04:00,61914.5,-177.0
2023-07-19 10:55:00-04:00,61786.5,-305.0
2023-07-25 16:00:00-04:00,61787.5,-304.0
2023-07-26 15:08:00-04:00,61595.5,-496.0
2023-07-27 10:24:00-04:00,61434.5,-657.0
2023-07-28 16:00:00-04:00,61506.5,-585.0
2023-07-31 09:55:00-04:00,61263.5,-828.0
2023-08-01 10:14:00-04:00,61082.5,-1009.0
2023-08-03 16:00:00-04:00,61071.0,-1020.5
2023-08-04 14:01:00-04:00,60883.5,-1208.0
2023-08-10 11:20:00-04:00,60683.0,-1408.5
2023-08-11 11:25:00-04:00,60500.5,-1591.0
2023-08-14 15:59:00-04:00,60805.5,-1286.0
2023-08-16 11:50:00-04:00,60558.5,-1533.0
2023-08-18 16:00:00-04:00,60709.0,-1382.5
2023-08-21 11:10:00-04:00,60523.5,-1568.0
2023-08-23 10:23:00-04:00,60889.5,-1202.0
2023-08-25 10:08:00-04:00,60762.0,-1329.5
2023-08-29 11:19:00-04:00,61135.0,-956.5
2023-08-30 10:26:00-04:00,60976.5,-1115.0
2023-08-31 16:00:00-04:00,60945.5,-1146.0
2023-09-05 16:00:00-04:00,60997.0,-1094.5
2023-09-06 10:00:00-04:00,60798.0,-1293.5
2023-09-07 16:00:00-04:00,60824.0,-1267.5
2023-09-08 14:59:00-04:00,60636.5,-1455.0
2023-09-12 10:27:00-04:00,60505.0,-1586.5
2023-09-13 16:00:00-04:00,60507.0,-1584.5
2023-09-14 16:00:00-04:00,60570.5,-1521.0
2023-09-18 16:00:00-04:00,60533.0,-1558.5
2023-09-20 10:14:00-04:00,60289.0,-1802.5
2023-09-22 14:12:00-04:00,60063.0,-2028.5
2023-09-25 16:00:00-04:00,60209.0,-1882.5
2023-09-27 10:01:00-04:00,60014.0,-2077.5
2023-09-28 11:48:00-04:00,60317.0,-1774.5
2023-09-29 10:24:00-04:00,60102.0,-1989.5
2023-10-03 10:02:00-04:00,59965.0,-2126.5
2023-10-04 16:00:00-04:00,60086.0,-2005.5
2023-10-06 11:43:00-04:00,60503.0,-1588.5
2023-10-09 20:29:00-04:00,60854.0,-1237.5
2023-10-10 11:07:00-04:00,61254.0,-837.5
2023-10-11 16:02:00-04:00,61256.0,-835.5
2023-10-12 13:08:00-04:00,61017.0,-1074.5
2023-10-16 16:00:00-04:00,61063.0,-1028.5
2023-10-17 16:00:00-04:00,61177.0,-914.5
2023-10-18 10:35:00-04:00,61023.0,-1068.5
2023-10-19 12:31:00-04:00,60834.0,-1257.5
2023-10-23 16:00:00-04:00,61007.5,-1084.0
2023-10-24 12:21:00-04:00,60851.5,-1240.0
2023-10-27 10:09:00-04:00,60645.5,-1446.0
2023-10-30 10:28:00-04:00,60416.0,-1675.5
2023-10-31 16:00:00-04:00,60504.0,-1587.5
2023-11-01 15:00:00-04:00,60960.0,-1131.5
2023-11-02 16:00:00-04:00,61118.0,-973.5
2023-11-03 16:00:00-04:00,61267.0,-824.5
2023-11-07 16:00:00-05:00,61431.5,-660.0
2023-11-09 10:07:00-05:00,61193.5,-898.0
2023-11-10 13:25:00-05:00,61503.5,-588.0
2023-11-13 16:00:00-05:00,61524.5,-567.0
2023-11-14 16:00:00-05:00,61598.0,-493.5
2023-11-16 10:41:00-05:00,61391.0,-700.5
2023-11-20 16:00:00-05:00,61586.0,-505.5
2023-11-27 16:00:00-05:00,61511.5,-580.0
2023-11-28 16:00:00-05:00,61654.5,-437.0
2023-12-01 10:26:00-05:00,61518.0,-573.5
2023-12-05 16:00:00-05:00,61635.0,-456.5
2023-12-07 16:00:00-05:00,61712.5,-379.0
2023-12-08 16:00:00-05:00,61839.0,-252.5
2023-12-11 16:00:00-05:00,61995.5,-96.0
2023-12-12 18:09:00-05:00,62277.5,0.0
2023-12-13 14:42:00-05:00,62701.5,0.0
2023-12-14 10:05:00-05:00,62484.5,-217.0
2023-12-15 13:41:00-05:00,62347.5,-354.0
2023-12-18 16:00:00-05:00,62528.5,-173.0
2023-12-22 11:00:00-05:00,62315.5,-386.0
2023-12-29 10:34:00-05:00,62108.5,-593.0
2024-01-04 15:55:00-05:00,61976.5,-725.0
2024-01-05 13:16:00-05:00,61850.0,-851.5
2024-01-08 14:11:00-05:00,62175.0,-526.5
2024-01-09 12:53:00-05:00,62653.0,-48.5
2024-01-10 14:13:00-05:00,63100.0,0.0
2024-01-12 10:00:00-05:00,62963.5,-136.5
2024-01-16 14:19:00-05:00,62806.0,-294.0
2024-01-18 12:13:00-05:00,62671.5,-428.5
2024-01-19 12:31:00-05:00,63021.5,-78.5
2024-01-24 14:23:00-05:00,62885.5,-214.5
2024-01-25 12:08:00-05:00,62659.5,-440.5
2024-01-26 12:49:00-05:00,62449.5,-650.5
2024-02-01 10:54:00-05:00,62246.5,-853.5
2024-02-07 16:00:00-05:00,62312.0,-788.0
2024-02-08 16:00:00-05:00,62324.0,-776.0
2024-02-09 10:35:00-05:00,62765.0,-335.0
2024-02-14 11:00:00-05:00,62595.0,-505.0
2024-02-15 16:00:00-05:00,62607.5,-492.5
2024-02-21 10:31:00-05:00,62469.0,-631.0
2024-02-22 14:14:00-05:00,62738.0,-362.0
2024-02-27 12:54:00-05:00,62553.0,-547.0
2024-02-28 12:39:00-05:00,62341.0,-759.0
2024-03-01 12:19:00-05:00,62775.0,-325.0
2024-03-06 13:33:00-05:00,62534.0,-566.0
2024-03-07 16:16:00-05:00,62396.0,-704.0
2024-03-08 11:08:00-05:00,62258.5,-841.5
2024-03-11 16:00:00-04:00,62197.5,-902.5
2024-03-18 11:53:00-04:00,62044.5,-1055.5
2024-03-19 16:00:00-04:00,62273.0,-827.0
2024-03-20 19:07:00-04:00,62694.0,-406.0
2024-03-22 10:40:00-04:00,62509.0,-591.0
2024-03-25 16:00:00-04:00,62526.0,-574.0
2024-03-26 10:29:00-04:00,62304.0,-796.0
2024-03-28 13:17:00-04:00,62062.0,-1038.0
2024-04-03 19:31:00-04:00,62386.0,-714.0
2024-04-05 11:55:00-04:00,62719.0,-381.0
2024-04-08 16:00:00-04:00,62642.0,-458.0
2024-04-11 13:19:00-04:00,62894.0,-206.0
2024-04-16 10:37:00-04:00,62766.0,-334.0
2024-04-19 09:52:00-04:00,62609.0,-491.0
2024-04-22 10:09:00-04:00,62364.0,-736.0
2024-04-23 20:38:00-04:00,62768.0,-332.0
2024-04-24 09:56:00-04:00,62615.0,-485.0
2024-04-25 15:24:00-04:00,63009.0,-91.0
2024-04-26 16:00:00-04:00,63131.5,0.0
2024-05-01 14:32:00-04:00,63004.5,-127.0
2024-05-02 18:16:00-04:00,63360.5,0.0
2024-05-03 10:13:00-04:00,63214.5,-146.0
2024-05-06 16:00:00-04:00,63577.5,0.0
2024-05-08 16:00:00-04:00,63624.0,0.0
2024-05-09 16:00:00-04:00,63634.5,0.0
2024-05-10 10:19:00-04:00,63465.0,-169.5
2024-05-14 15:54:00-04:00,63909.0,0.0
2024-05-15 12:32:00-04:00,64239.0,0.0
2024-05-16 13:25:00-04:00,64029.0,-210.0
2024-05-17 11:04:00-04:00,63823.5,-415.5
2024-05-20 16:00:00-04:00,63939.0,-300.0
2024-05-21 15:55:00-04:00,64265.0,0.0
2024-05-22 13:37:00-04:00,64016.0,-249.0
2024-05-24 09:54:00-04:00,63818.0,-447.0
2024-05-29 16:46:00-04:00,63669.0,-596.0
2024-06-04 10:14:00-04:00,63508.5,-756.5
2024-06-05 10:00:00-04:00,63326.5,-938.5
2024-06-07 16:00:00-04:00,63285.5,-979.5
2024-06-10 16:00:00-04:00,63564.5,-700.5
2024-06-11 14:04:00-04:00,63902.5,-362.5
2024-06-12 16:00:00-04:00,63906.5,-358.5
2024-06-14 16:00:00-04:00,64195.5,-69.5
2024-06-17 12:29:00-04:00,64583.5,0.0
2024-06-21 13:19:00-04:00,64335.5,-248.0
2024-06-24 10:29:00-04:00,64132.5,-451.0
2024-06-25 11:55:00-04:00,64568.5,-15.0
2024-06-26 11:11:00-04:00,64321.5,-262.0
2024-06-27 11:28:00-04:00,64075.0,-508.5
2024-06-28 10:14:00-04:00,64363.0,-220.5
2024-07-01 16:00:00-04:00,64481.0,-102.5
2024-07-02 16:00:00-04:00,64784.5,0.0
2024-07-03 11:55:00-04:00,65198.5,0.0
2024-07-05 13:39:00-04:00,65446.5,0.0
2024-07-08 10:01:00-04:00,65255.5,-191.0
2024-07-10 11:00:00-04:00,65035.5,-411.0
2024-07-12 10:36:00-04:00,65497.5,0.0
2024-07-15 13:01:00-04:00,65347.5,-150.0
2024-07-22 11:16:00-04:00,65112.5,-385.0
2024-07-23 10:51:00-04:00,64890.0,-607.5
2024-08-12 16:00:00-04:00,64846.5,-651.0
2024-08-13 13:01:00-04:00,65194.5,-303.0
2024-08-15 12:17:00-04:00,65486.5,-11.0
2024-08-16 16:00:00-04:00,65578.5,0.0
2024-08-19 10:19:00-04:00,65418.0,-160.5
2024-08-20 10:17:00-04:00,65283.0,-295.5
2024-08-21 10:41:00-04:00,65665.0,0.0
2024-08-23 10:48:00-04:00,65437.0,-228.0
2024-09-09 10:30:00-04:00,65257.0,-408.0
2024-09-10 16:00:00-04:00,65296.0,-369.0
2024-09-11 14:29:00-04:00,65717.0,0.0
2024-09-13 16:00:00-04:00,65744.0,0.0
2024-09-17 10:59:00-04:00,65573.0,-171.0
2024-09-19 16:00:00-04:00,65569.5,-174.5
2024-09-23 13:01:00-04:00,65428.0,-316.0
2024-09-24 16:00:00-04:00,65443.5,-300.5
2024-09-25 13:00:00-04:00,65274.0,-470.0
2024-09-30 16:00:00-04:00,65216.5,-527.5
2024-10-03 13:00:00-04:00,64978.0,-766.0
2024-10-04 16:00:00-04:00,64907.0,-837.0
2024-10-07 14:04:00-04:00,64779.5,-964.5
2024-10-08 10:35:00-04:00,65163.5,-580.5
2024-10-09 11:50:00-04:00,65417.5,-326.5
2024-10-10 16:00:00-04:00,65533.5,-210.5
2024-10-11 16:00:00-04:00,65650.0,-94.0
2024-10-14 11:01:00-04:00,65496.5,-247.5
2024-10-16 16:00:00-04:00,65450.0,-294.0
2024-10-18 16:00:00-04:00,65401.5,-342.5
2024-10-21 10:40:00-04:00,65262.0,-482.0
2024-10-22 16:00:00-04:00,65368.0,-376.0
2024-10-24 16:00:00-04:00,65387.5,-356.5
2024-10-25 13:44:00-04:00,65177.5,-566.5
2024-10-29 15:22:00-04:00,65575.5,-168.5
2024-11-01 16:00:00-04:00,65562.0,-182.0
2024-11-05 21:19:00-05:00,65972.0,0.0
2024-11-07 16:00:00-05:00,66219.0,0.0
2024-11-12 10:08:00-05:00,66085.5,-133.5
2024-11-13 15:54:00-05:00,65886.5,-332.5
2024-11-18 11:39:00-05:00,66153.5,-65.5
2024-11-19 13:56:00-05:00,66530.5,0.0
2024-11-20 16:20:00-05:00,66280.5,-250.0
2024-11-22 10:10:00-05:00,66088.5,-442.0
2024-11-26 10:00:00-05:00,65949.5,-581.0
2024-11-29 13:14:00-05:00,66170.0,-360.5
2024-12-02 16:00:00-05:00,66314.5,-216.0
2024-12-03 21:59:00-05:00,66584.5,0.0
2024-12-04 15:50:00-05:00,67000.5,0.0
2024-12-06 16:00:00-05:00,67168.0,0.0
2024-12-09 10:26:00-05:00,67039.5,-128.5
2024-12-10 10:58:00-05:00,66872.5,-295.5
2024-12-11 15:17:00-05:00,67196.5,0.0
2024-12-12 15:13:00-05:00,67016.5,-180.0
2024-12-13 10:40:00-05:00,66788.5,-408.0
2024-12-16 12:40:00-05:00,67036.5,-160.0
2024-12-17 14:32:00-05:00,66859.5,-337.0
2024-12-18 14:01:00-05:00,66666.5,-530.0
2024-12-23 16:00:00-05:00,66834.0,-362.5
2024-12-24 12:59:00-05:00,67143.0,-53.5
2024-12-26 19:20:00-05:00,66917.0,-279.5
2025-01-22 16:00:00-05:00,66940.0,-256.5
2025-01-23 15:58:00-05:00,67378.0,0.0
2025-01-24 10:16:00-05:00,67154.0,-224.0
2025-01-30 10:02:00-05:00,67000.0,-378.0
2025-01-31 13:34:00-05:00,66844.0,-534.0
2025-02-05 10:03:00-05:00,66699.0,-679.0
2025-02-06 14:33:00-05:00,66554.5,-823.5
2025-02-10 16:00:00-05:00,66609.5,-768.5
2025-02-11 16:00:00-05:00,66549.0,-829.0
2025-02-13 16:00:00-05:00,66828.5,-549.5
2025-02-14 16:00:00-05:00,67001.5,-376.5
2025-02-19 20:42:00-05:00,66792.5,-585.5
2025-03-25 16:00:00-04:00,66920.5,-457.5
2025-05-01 15:56:00-04:00,66705.0,-673.0
2025-05-05 20:24:00-04:00,66539.5,-838.5
2025-05-06 18:01:00-04:00,66893.5,-484.5
2025-05-07 10:54:00-04:00,66672.5,-705.5
2025-05-08 20:28:00-04:00,66475.5,-902.5
2025-05-13 12:35:00-04:00,66929.5,-448.5
2025-05-14 13:21:00-04:00,66734.0,-644.0
2025-05-15 13:18:00-04:00,67045.0,-333.0
2025-05-16 16:54:00-04:00,66877.0,-501.0
2025-05-20 11:00:00-04:00,66664.0,-714.0
2025-05-21 13:24:00-04:00,66465.5,-912.5
2025-05-27 13:48:00-04:00,66832.5,-545.5
2025-05-30 11:41:00-04:00,66627.0,-751.0
2025-06-03 16:00:00-04:00,66788.5,-589.5
2025-06-06 10:32:00-04:00,66604.0,-774.0
2025-06-09 21:30:00-04:00,66866.0,-512.0
2025-06-10 11:32:00-04:00,66719.5,-658.5
2025-06-11 12:07:00-04:00,66583.5,-794.5
2025-06-12 19:59:00-04:00,66438.0,-940.0
2025-06-16 19:59:00-04:00,66261.0,-1117.0
2025-06-17 12:59:00-04:00,66090.0,-1288.0
2025-06-18 14:57:00-04:00,65933.5,-1444.5
2025-06-19 18:01:00-04:00,65962.0,-1416.0
2025-06-24 16:00:00-04:00,66097.5,-1280.5
2025-06-26 16:00:00-04:00,66257.5,-1120.5
2025-06-27 14:19:00-04:00,66129.5,-1248.5
2025-06-30 16:00:00-04:00,66135.0,-1243.0
2025-07-01 10:22:00-04:00,66002.0,-1376.0
2025-07-02 21:25:00-04:00,66284.0,-1094.0
2025-07-03 18:00:00-04:00,66368.0,-1010.0
2025-07-09 10:36:00-04:00,66170.5,-1207.5
2025-07-11 16:00:00-04:00,66149.0,-1229.0
2025-07-17 14:00:00-04:00,66430.0,-948.0
2025-07-21 16:00:00-04:00,66380.0,-998.0
2025-07-23 16:00:00-04:00,66454.0,-924.0
2025-07-25 16:00:00-04:00,66591.0,-787.0
2025-07-28 11:19:00-04:00,66370.0,-1008.0
2025-07-30 14:56:00-04:00,66226.5,-1151.5
2025-08-05 10:17:00-04:00,66070.5,-1307.5
2025-08-06 14:08:00-04:00,66417.5,-960.5
2025-08-07 10:10:00-04:00,66278.5,-1099.5
2025-08-08 16:00:00-04:00,66465.5,-912.5
2025-08-11 14:04:00-04:00,66223.5,-1154.5
2025-08-12 16:00:00-04:00,66468.5,-909.5
2025-08-14 16:00:00-04:00,66443.0,-935.0
2025-08-18 10:30:00-04:00,66228.0,-1150.0
2025-08-21 11:55:00-04:00,66031.0,-1347.0
2025-08-25 20:03:00-04:00,65878.5,-1499.5
2025-08-26 16:00:00-04:00,66151.5,-1226.5
2025-08-27 16:20:00-04:00,66573.5,-804.5
2025-08-28 16:00:00-04:00,66583.0,-795.0
2025-09-03 13:45:00-04:00,66405.5,-972.5
2025-09-04 23:58:00-04:00,66783.5,-594.5
2025-09-08 13:52:00-04:00,66623.0,-755.0
2025-09-11 16:00:00-04:00,66636.0,-742.0
2025-09-12 16:00:00-04:00,66692.5,-685.5
2025-09-15 22:31:00-04:00,67146.5,-231.5
2025-09-18 16:00:00-04:00,67113.0,-265.0
2025-09-19 10:47:00-04:00,66880.0,-498.0
2025-09-22 12:11:00-04:00,67238.0,-140.0
2025-09-29 11:36:00-04:00,67072.0,-306.0
2025-09-30 13:24:00-04:00,66885.0,-493.0
2025-10-01 20:45:00-04:00,67293.0,-85.0
2025-10-08 15:51:00-04:00,67626.0,0.0
2025-10-10 10:57:00-04:00,67440.0,-186.0
2025-10-20 16:00:00-04:00,67580.0,-46.0
2025-10-21 16:03:00-04:00,67419.0,-207.0
2025-10-22 10:27:00-04:00,67213.5,-412.5
2025-10-23 16:00:00-04:00,67478.0,-148.0
2025-10-24 16:00:00-04:00,67420.5,-205.5
2025-10-27 16:44:00-04:00,67718.5,0.0
2025-10-28 16:00:00-04:00,67789.5,0.0
2025-10-29 10:50:00-04:00,67611.5,-178.0
2025-11-10 10:59:00-05:00,67372.5,-417.0
2025-11-11 16:00:00-05:00,67386.0,-403.5
2025-11-28 13:14:00-05:00,67501.5,-288.0
2025-12-09 16:00:00-05:00,67552.5,-237.0
2025-12-10 10:40:00-05:00,67350.5,-439.0
2025-12-11 16:53:00-05:00,67743.5,-46.0
2025-12-23 10:03:00-05:00,67537.0,-252.5
2025-12-24 13:14:00-05:00,67659.0,-130.5
2025-12-30 15:59:00-05:00,67532.5,-257.0
2026-01-07 22:46:00-05:00,67330.0,-459.5
2026-01-19 18:00:00-05:00,67427.5,-362.0
2026-01-23 16:00:00-05:00,67545.0,-244.5
2026-01-27 16:00:00-05:00,67629.0,-160.5
2026-02-16 20:52:00-05:00,67488.5,-301.0
