timestamp,equity,drawdown
2019-05-06 16:00:00-04:00,50116.0,0.0
2019-05-08 20:46:00-04:00,49894.0,-222.0
2019-05-09 20:24:00-04:00,50216.0,0.0
2019-05-10 09:56:00-04:00,50024.0,-192.0
2019-05-14 16:00:00-04:00,50099.0,-117.0
2019-05-15 11:25:00-04:00,50455.0,0.0
2019-05-16 16:00:00-04:00,50554.0,0.0
2019-05-17 15:16:00-04:00,50345.0,-209.0
2019-05-20 16:00:00-04:00,50234.0,-320.0
2019-05-21 16:00:00-04:00,50206.5,-347.5
2019-05-22 13:10:00-04:00,50013.0,-541.0
2019-05-27 20:48:00-04:00,50373.0,-181.0
2019-05-29 11:23:00-04:00,50152.5,-401.5
2019-05-30 11:01:00-04:00,49936.5,-617.5
2019-05-31 15:22:00-04:00,49708.5,-845.5
2019-06-04 13:04:00-04:00,50155.5,-398.5
2019-06-06 16:00:00-04:00,50329.5,-224.5
2019-06-07 16:00:00-04:00,50507.5,-46.5
2019-06-10 16:00:00-04:00,50451.5,-102.5
2019-06-13 11:06:00-04:00,50235.5,-318.5
2019-06-14 16:00:00-04:00,50198.0,-356.0
2019-06-17 16:00:00-04:00,50182.0,-372.0
2019-06-18 16:00:00-04:00,50099.0,-455.0
2019-06-19 16:00:00-04:00,50145.0,-409.0
2019-06-21 16:00:00-04:00,50192.5,-361.5
2019-06-24 22:02:00-04:00,49961.5,-592.5
2019-06-27 11:18:00-04:00,49743.5,-810.5
2019-06-28 16:05:00-04:00,49731.5,-822.5
2019-07-02 11:40:00-04:00,49496.5,-1057.5
2019-07-03 12:55:00-04:00,49909.5,-644.5
2019-07-04 21:58:00-04:00,49662.5,-891.5
2019-07-05 16:00:00-04:00,49855.0,-699.0
2019-07-09 16:00:00-04:00,50114.5,-439.5
2019-07-10 11:18:00-04:00,49887.5,-666.5
2019-07-11 10:30:00-04:00,49660.0,-894.0
2019-07-12 10:44:00-04:00,49445.0,-1109.0
2019-07-15 16:00:00-04:00,49430.0,-1124.0
2019-07-18 11:21:00-04:00,49255.0,-1299.0
2019-07-22 16:00:00-04:00,49373.0,-1181.0
2019-07-23 16:42:00-04:00,49123.0,-1431.0
2019-07-24 16:05:00-04:00,49519.0,-1035.0
2019-07-25 20:25:00-04:00,49498.0,-1056.0
2019-07-26 16:00:00-04:00,49457.0,-1097.0
2019-07-30 16:00:00-04:00,49410.0,-1144.0
2019-07-31 10:36:00-04:00,49204.0,-1350.0
2019-08-01 13:40:00-04:00,49072.0,-1482.0
2019-08-06 10:14:00-04:00,48901.0,-1653.0
2019-08-07 15:00:00-04:00,49285.0,-1269.0
2019-08-08 12:33:00-04:00,49729.0,-825.0
2019-08-12 14:19:00-04:00,49514.0,-1040.0
2019-08-13 16:00:00-04:00,49681.0,-873.0
2019-08-15 21:02:00-04:00,49675.0,-879.0
2019-08-16 16:00:00-04:00,49819.0,-735.0
2019-08-19 16:48:00-04:00,49571.0,-983.0
2019-08-20 14:20:00-04:00,49326.5,-1227.5
2019-08-21 18:16:00-04:00,49386.5,-1167.5
2019-08-23 10:10:00-04:00,49182.5,-1371.5
2019-08-26 16:00:00-04:00,49227.5,-1326.5
2019-08-27 10:23:00-04:00,48979.5,-1574.5
2019-08-28 16:00:00-04:00,49132.5,-1421.5
2019-08-29 10:37:00-04:00,48912.0,-1642.0
2019-09-02 11:49:00-04:00,48668.0,-1886.0
2019-09-03 10:04:00-04:00,48488.0,-2066.0
2019-09-04 10:07:00-04:00,48270.5,-2283.5
2019-09-05 16:00:00-04:00,48422.0,-2132.0
2019-09-06 16:00:00-04:00,48272.0,-2282.0
2019-09-10 16:00:00-04:00,48289.0,-2265.0
2019-09-11 19:22:00-04:00,48751.0,-1803.0
2019-09-12 10:51:00-04:00,48553.0,-2001.0
2019-09-13 13:44:00-04:00,48353.5,-2200.5
2019-09-16 11:59:00-04:00,48152.5,-2401.5
2019-09-17 16:00:00-04:00,48287.5,-2266.5
2019-09-18 22:39:00-04:00,48067.5,-2486.5
2019-09-19 12:29:00-04:00,47894.5,-2659.5
2019-09-23 19:01:00-04:00,48310.5,-2243.5
2019-09-24 10:15:00-04:00,48080.5,-2473.5
2019-09-25 14:11:00-04:00,48512.5,-2041.5
2019-09-26 20:23:00-04:00,48326.5,-2227.5
2019-09-30 20:44:00-04:00,48750.5,-1803.5
2019-10-01 10:05:00-04:00,48562.5,-1991.5
2019-10-03 16:00:00-04:00,48825.5,-1728.5
2019-10-04 16:00:00-04:00,49079.0,-1475.0
2019-10-07 16:00:00-04:00,48945.5,-1608.5
2019-10-08 14:57:00-04:00,48705.5,-1848.5
2019-10-09 18:20:00-04:00,48467.5,-2086.5
2019-10-10 10:57:00-04:00,48903.5,-1650.5
2019-10-11 12:32:00-04:00,48714.5,-1839.5
2019-10-14 16:00:00-04:00,48585.5,-1968.5
2019-10-15 13:45:00-04:00,48942.5,-1611.5
2019-10-16 13:09:00-04:00,48730.0,-1824.0
2019-10-18 10:03:00-04:00,48488.5,-2065.5
2019-10-21 16:00:00-04:00,48518.5,-2035.5
2019-10-23 16:00:00-04:00,48572.5,-1981.5
2019-10-24 12:16:00-04:00,48345.0,-2209.0
2019-10-25 11:14:00-04:00,48696.0,-1858.0
2019-10-28 16:00:00-04:00,48804.0,-1750.0
2019-10-30 16:30:00-04:00,49158.0,-1396.0
2019-10-31 22:25:00-04:00,49146.0,-1408.0
2019-11-01 12:11:00-04:00,48918.5,-1635.5
2019-11-04 18:35:00-05:00,48881.0,-1673.0
2019-11-05 10:09:00-05:00,48667.0,-1887.0
2019-11-06 16:36:00-05:00,48653.0,-1901.0
2019-11-07 14:44:00-05:00,48459.5,-2094.5
2019-11-08 16:00:00-05:00,48671.5,-1882.5
2019-11-11 16:00:00-05:00,48894.0,-1660.0
2019-11-12 14:50:00-05:00,48644.0,-1910.0
2019-11-13 16:00:00-05:00,48662.0,-1892.0
2019-11-14 10:56:00-05:00,48419.5,-2134.5
2019-11-15 16:00:00-05:00,48419.5,-2134.5
2019-11-18 16:00:00-05:00,48517.0,-2037.0
2019-11-20 12:52:00-05:00,48292.0,-2262.0
2019-11-21 15:51:00-05:00,48074.0,-2480.0
2019-11-25 16:00:00-05:00,48212.0,-2342.0
2019-11-26 16:00:00-05:00,48237.0,-2317.0
2019-11-27 13:36:00-05:00,48629.0,-1925.0
2019-11-28 18:00:00-05:00,48382.5,-2171.5
2019-11-29 11:45:00-05:00,48151.5,-2402.5
2019-12-03 16:00:00-05:00,48239.5,-2314.5
2019-12-05 20:19:00-05:00,48223.5,-2330.5
2019-12-06 16:00:00-05:00,48288.5,-2265.5
2019-12-10 16:00:00-05:00,48204.5,-2349.5
2019-12-11 18:47:00-05:00,48588.5,-1965.5
2019-12-12 16:00:00-05:00,48560.0,-1994.0
2019-12-13 16:00:00-05:00,48545.0,-2009.0
2019-12-16 16:00:00-05:00,48591.0,-1963.0
2019-12-18 15:59:00-05:00,48345.0,-2209.0
2019-12-19 16:44:00-05:00,48750.0,-1804.0
2019-12-20 16:00:00-05:00,48722.0,-1832.0
2019-12-23 15:40:00-05:00,48474.0,-2080.0
2019-12-26 14:04:00-05:00,48882.0,-1672.0
2019-12-31 16:00:00-05:00,48906.0,-1648.0
2020-01-02 22:17:00-05:00,48738.0,-1816.0
2020-01-03 16:00:00-05:00,48672.0,-1882.0
2020-01-06 20:42:00-05:00,49058.0,-1496.0
2020-01-07 16:31:00-05:00,48869.0,-1685.0
2020-01-08 16:00:00-05:00,49040.0,-1514.0
2020-01-09 19:31:00-05:00,49046.0,-1508.0
2020-01-13 16:33:00-05:00,49397.0,-1157.0
2020-01-14 14:02:00-05:00,49167.5,-1386.5
2020-01-15 13:33:00-05:00,48959.0,-1595.0
2020-01-16 11:12:00-05:00,48713.0,-1841.0
2020-01-17 16:00:00-05:00,48701.0,-1853.0
2020-01-20 20:05:00-05:00,48453.5,-2100.5
2020-01-21 21:51:00-05:00,48868.5,-1685.5
2020-01-22 15:06:00-05:00,48672.0,-1882.0
2020-01-23 16:00:00-05:00,48792.0,-1762.0
2020-01-27 16:00:00-05:00,48728.5,-1825.5
2020-01-28 22:17:00-05:00,49114.5,-1439.5
2020-01-30 16:00:00-05:00,49187.0,-1367.0
2020-02-03 16:00:00-05:00,49224.5,-1329.5
2020-02-04 16:42:00-05:00,49584.5,-969.5
2020-02-06 16:00:00-05:00,49730.5,-823.5
2020-02-07 16:00:00-05:00,49635.5,-918.5
2020-02-10 20:15:00-05:00,50111.5,-442.5
2020-02-11 14:03:00-05:00,49927.5,-626.5
2020-02-12 18:54:00-05:00,49695.5,-858.5
2020-02-13 16:00:00-05:00,49806.5,-747.5
2020-02-14 12:20:00-05:00,49595.0,-959.0
2020-02-17 18:00:00-05:00,49361.0,-1193.0
2020-02-18 16:00:00-05:00,49434.0,-1120.0
2020-02-19 16:00:00-05:00,49561.5,-992.5
2020-02-20 11:07:00-05:00,49332.0,-1222.0
2020-02-27 11:38:00-05:00,49127.5,-1426.5
2020-03-04 16:00:00-05:00,49392.5,-1161.5
2020-03-05 12:42:00-05:00,49224.0,-1330.0
2020-03-06 14:08:00-05:00,49017.5,-1536.5
2020-03-10 10:46:00-04:00,48795.5,-1758.5
2020-03-16 10:36:00-04:00,48555.5,-1998.5
2020-03-24 14:04:00-04:00,48327.0,-2227.0
2020-03-27 15:50:00-04:00,48089.5,-2464.5
2020-03-30 20:05:00-04:00,48439.5,-2114.5
2020-03-31 10:40:00-04:00,48901.5,-1652.5
2020-04-01 12:27:00-04:00,48748.0,-1806.0
2020-04-02 16:00:00-04:00,48924.0,-1630.0
2020-04-06 15:32:00-04:00,49232.0,-1322.0
2020-04-08 16:00:00-04:00,49419.0,-1135.0
2020-04-13 21:33:00-04:00,49698.0,-856.0
2020-04-14 16:00:00-04:00,49954.5,-599.5
2020-04-15 16:00:00-04:00,49969.5,-584.5
2020-04-16 12:31:00-04:00,49747.5,-806.5
2020-04-20 15:05:00-04:00,49620.5,-933.5
2020-04-22 16:00:00-04:00,49785.5,-768.5
2020-04-23 12:45:00-04:00,49611.0,-943.0
2020-04-24 15:50:00-04:00,50057.0,-497.0
2020-04-27 10:59:00-04:00,49885.0,-669.0
2020-04-29 15:22:00-04:00,50127.0,-427.0
2020-05-01 11:30:00-04:00,49991.5,-562.5
2020-05-04 11:40:00-04:00,50327.5,-226.5
2020-05-05 15:37:00-04:00,50123.5,-430.5
2020-05-06 15:49:00-04:00,49988.0,-566.0
2020-05-07 16:00:00-04:00,49906.0,-648.0
2020-05-08 16:00:00-04:00,49981.0,-573.0
2020-05-11 16:00:00-04:00,50141.5,-412.5
2020-05-13 11:38:00-04:00,49926.5,-627.5
2020-05-14 20:00:00-04:00,50197.5,-356.5
2020-05-15 16:00:00-04:00,50400.5,-153.5
2020-05-18 09:54:00-04:00,50210.5,-343.5
2020-05-19 15:51:00-04:00,49962.5,-591.5
2020-05-20 16:00:00-04:00,50118.5,-435.5
2020-05-22 16:00:00-04:00,50243.5,-310.5
2020-05-25 18:00:00-04:00,50019.5,-534.5
2020-05-27 16:00:00-04:00,50098.0,-456.0
2020-05-28 21:15:00-04:00,49929.5,-624.5
2020-05-29 10:08:00-04:00,49710.5,-843.5
2020-06-01 16:00:00-04:00,49791.5,-762.5
2020-06-02 10:44:00-04:00,49545.5,-1008.5
2020-06-03 12:09:00-04:00,49331.5,-1222.5
2020-06-04 11:12:00-04:00,49145.5,-1408.5
2020-06-05 16:00:00-04:00,49230.5,-1323.5
2020-06-08 16:00:00-04:00,49580.0,-974.0
2020-06-09 15:20:00-04:00,49988.0,-566.0
2020-06-10 10:56:00-04:00,49793.0,-761.0
2020-06-11 11:01:00-04:00,49597.0,-957.0
2020-06-15 14:01:00-04:00,49951.0,-603.0
2020-06-16 10:41:00-04:00,49723.0,-831.0
2020-06-17 09:57:00-04:00,49552.0,-1002.0
2020-06-18 10:33:00-04:00,49365.0,-1189.0
2020-06-19 10:46:00-04:00,49119.0,-1435.0
2020-06-22 12:16:00-04:00,49569.0,-985.0
2020-06-23 13:37:00-04:00,49913.0,-641.0
2020-06-25 16:00:00-04:00,50057.0,-497.0
2020-06-29 16:00:00-04:00,50269.0,-285.0
2020-06-30 20:00:00-04:00,50479.5,-74.5
2020-07-01 16:00:00-04:00,50602.0,0.0
2020-07-02 10:29:00-04:00,50411.0,-191.0
2020-07-06 11:06:00-04:00,50867.0,0.0
2020-07-07 15:09:00-04:00,50736.5,-130.5
2020-07-08 11:18:00-04:00,50525.5,-341.5
2020-07-09 22:48:00-04:00,50395.5,-471.5
2020-07-10 16:00:00-04:00,50531.5,-335.5
2020-07-13 14:03:00-04:00,50388.0,-479.0
2020-07-16 16:04:00-04:00,50238.5,-628.5
2020-07-17 16:00:00-04:00,50194.0,-673.0
2020-07-20 13:40:00-04:00,50513.0,-354.0
2020-07-22 10:47:00-04:00,50381.5,-485.5
2020-07-23 10:12:00-04:00,50251.0,-616.0
2020-07-27 11:38:00-04:00,50041.5,-825.5
2020-07-28 15:05:00-04:00,49898.5,-968.5
2020-07-29 16:00:00-04:00,49994.5,-872.5
2020-07-30 16:09:00-04:00,50288.5,-578.5
2020-08-03 16:00:00-04:00,50253.5,-613.5
2020-08-04 14:31:00-04:00,50063.5,-803.5
2020-08-05 16:00:00-04:00,50071.5,-795.5
2020-08-06 14:09:00-04:00,50429.5,-437.5
2020-08-07 10:21:00-04:00,50201.5,-665.5
2020-08-11 15:16:00-04:00,50013.5,-853.5
2020-08-12 12:21:00-04:00,50280.5,-586.5
2020-08-13 14:21:00-04:00,50140.5,-726.5
2020-08-17 16:00:00-04:00,50286.0,-581.0
2020-08-18 16:00:00-04:00,50315.0,-552.0
2020-08-19 14:18:00-04:00,50103.0,-764.0
2020-08-20 21:00:00-04:00,50437.0,-430.0
2020-08-21 15:01:00-04:00,50866.0,-1.0
2020-08-25 19:49:00-04:00,51334.0,0.0
2020-08-26 11:40:00-04:00,51793.0,0.0
2020-08-27 12:38:00-04:00,51578.0,-215.0
2020-08-28 10:36:00-04:00,51366.5,-426.5
2020-08-31 13:46:00-04:00,51762.5,-30.5
2020-09-01 20:37:00-04:00,52108.5,0.0
2020-09-02 19:43:00-04:00,52104.0,-4.5
2020-09-07 09:56:00-04:00,51912.0,-196.5
2020-09-09 16:00:00-04:00,51979.0,-129.5
2020-09-10 10:45:00-04:00,51831.0,-277.5
2020-09-14 13:32:00-04:00,51659.5,-449.0
2020-09-15 10:24:00-04:00,51459.5,-649.0
2020-09-22 16:00:00-04:00,51639.0,-469.5
2020-09-24 13:45:00-04:00,52042.0,-66.5
2020-09-25 14:19:00-04:00,52367.0,0.0
2020-09-28 16:00:00-04:00,52399.5,0.0
2020-09-29 10:34:00-04:00,52162.5,-237.0
2020-09-30 14:09:00-04:00,52444.5,0.0
2020-10-01 13:59:00-04:00,52251.5,-193.0
2020-10-02 11:53:00-04:00,52002.0,-442.5
2020-10-05 16:00:00-04:00,52383.0,-61.5
2020-10-06 10:44:00-04:00,52182.0,-262.5
2020-10-07 16:00:00-04:00,52314.0,-130.5
2020-10-08 18:05:00-04:00,52298.0,-146.5
2020-10-09 16:01:00-04:00,52654.0,0.0
2020-10-12 12:42:00-04:00,52959.0,0.0
2020-10-13 13:57:00-04:00,52710.0,-249.0
2020-10-14 10:25:00-04:00,52548.0,-411.0
2020-10-15 10:43:00-04:00,52319.5,-639.5
2020-10-16 11:10:00-04:00,52128.5,-830.5
2020-10-20 11:00:00-04:00,51981.5,-977.5
2020-10-21 11:15:00-04:00,51782.0,-1177.0
2020-10-23 16:00:00-04:00,51743.5,-1215.5
2020-10-26 10:49:00-04:00,51532.0,-1427.0
2020-10-27 10:22:00-04:00,51386.5,-1572.5
2020-10-29 14:00:00-04:00,51686.5,-1272.5
2020-11-02 10:43:00-05:00,51529.5,-1429.5
2020-11-03 10:14:00-05:00,51955.5,-1003.5
2020-11-05 22:58:00-05:00,51786.0,-1173.0
2020-11-11 16:00:00-05:00,51904.5,-1054.5
2020-11-12 11:40:00-05:00,51719.5,-1239.5
2020-11-13 16:00:00-05:00,51715.5,-1243.5
2020-11-16 16:00:00-05:00,51773.0,-1186.0
2020-11-18 14:19:00-05:00,51576.0,-1383.0
2020-11-19 23:43:00-05:00,52008.0,-951.0
2020-11-20 15:15:00-05:00,51786.0,-1173.0
2020-11-23 10:06:00-05:00,51594.0,-1365.0
2020-11-24 19:08:00-05:00,51926.0,-1033.0
2020-11-25 16:00:00-05:00,51980.0,-979.0
2020-11-27 13:14:00-05:00,52053.0,-906.0
2020-11-30 16:03:00-05:00,52055.0,-904.0
2020-12-01 13:48:00-05:00,52489.0,-470.0
2020-12-02 16:00:00-05:00,52612.5,-346.5
2020-12-03 11:09:00-05:00,52406.5,-552.5
2020-12-04 16:00:00-05:00,52541.5,-417.5
2020-12-07 16:00:00-05:00,52558.5,-400.5
2020-12-08 16:00:00-05:00,52724.5,-234.5
2020-12-09 10:11:00-05:00,52531.5,-427.5
2020-12-10 16:00:00-05:00,52646.0,-313.0
2020-12-11 11:36:00-05:00,52480.0,-479.0
2020-12-14 16:00:00-05:00,52413.5,-545.5
2020-12-15 16:00:00-05:00,52450.5,-508.5
2020-12-16 16:00:00-05:00,52629.5,-329.5
2020-12-21 16:00:00-05:00,52660.0,-299.0
2020-12-22 11:01:00-05:00,52470.0,-489.0
2020-12-23 15:55:00-05:00,52236.0,-723.0
2020-12-24 13:14:00-05:00,52205.5,-753.5
2020-12-28 16:00:00-05:00,52238.5,-720.5
2020-12-31 16:00:00-05:00,52418.5,-540.5
2021-01-05 21:52:00-05:00,52197.0,-762.0
2021-01-06 16:00:00-05:00,52104.0,-855.0
2021-01-07 16:00:00-05:00,52315.0,-644.0
2021-01-08 13:22:00-05:00,52169.5,-789.5
2021-01-11 15:21:00-05:00,51972.5,-986.5
2021-01-13 16:00:00-05:00,52150.5,-808.5
2021-01-14 11:57:00-05:00,51963.5,-995.5
2021-01-18 19:36:00-05:00,52351.5,-607.5
2021-01-19 16:40:00-05:00,52697.5,-261.5
2021-01-20 19:57:00-05:00,52981.5,0.0
2021-01-21 16:00:00-05:00,53073.5,0.0
2021-01-22 10:38:00-05:00,52892.5,-181.0
2021-01-26 16:00:00-05:00,52842.5,-231.0
2021-02-01 11:01:00-05:00,52606.5,-467.0
2021-02-02 16:00:00-05:00,52648.0,-425.5
2021-02-04 16:00:00-05:00,52765.0,-308.5
2021-02-05 16:00:00-05:00,52765.0,-308.5
2021-02-08 11:29:00-05:00,52587.0,-486.5
2021-02-09 16:00:00-05:00,52583.0,-490.5
2021-02-11 10:59:00-05:00,52337.0,-736.5
2021-02-12 16:59:00-05:00,52801.0,-272.5
2021-02-15 19:34:00-05:00,53215.0,0.0
2021-02-16 11:08:00-05:00,53007.0,-208.0
2021-02-17 16:00:00-05:00,53037.5,-177.5
2021-02-18 16:00:00-05:00,53290.5,0.0
2021-02-24 16:00:00-05:00,53634.0,0.0
2021-02-26 14:05:00-05:00,53421.5,-212.5
2021-03-01 14:53:00-05:00,53732.5,0.0
2021-03-09 13:02:00-05:00,54017.5,0.0
2021-03-10 10:21:00-05:00,53813.5,-204.0
2021-03-11 16:00:00-05:00,53884.0,-133.5
2021-03-12 16:00:00-05:00,53979.5,-38.0
2021-03-15 11:34:00-04:00,53837.5,-180.0
2021-03-16 14:25:00-04:00,53695.5,-322.0
2021-03-17 15:00:00-04:00,54097.5,0.0
2021-03-19 16:00:00-04:00,54096.5,-1.0
2021-03-22 12:43:00-04:00,54380.5,0.0
2021-03-23 10:34:00-04:00,54134.5,-246.0
2021-03-25 10:49:00-04:00,53896.5,-484.0
2021-03-26 14:09:00-04:00,53755.0,-625.5
2021-03-29 14:31:00-04:00,53618.5,-762.0
2021-03-30 16:00:00-04:00,53583.0,-797.5
2021-03-31 16:00:00-04:00,53720.0,-660.5
2021-04-01 16:00:00-04:00,53806.0,-574.5
2021-04-05 11:36:00-04:00,54178.0,-202.5
2021-04-06 16:00:00-04:00,54108.0,-272.5
2021-04-07 21:41:00-04:00,54508.0,0.0
2021-04-08 10:09:00-04:00,54275.5,-232.5
2021-04-09 16:00:00-04:00,54491.5,-16.5
2021-04-12 14:54:00-04:00,54254.5,-253.5
2021-04-13 16:00:00-04:00,54312.5,-195.5
2021-04-15 16:00:00-04:00,54439.5,-68.5
2021-04-20 10:40:00-04:00,54312.5,-195.5
2021-04-21 16:00:00-04:00,54555.5,0.0
2021-04-22 13:07:00-04:00,54357.5,-198.0
2021-04-23 11:39:00-04:00,54743.5,0.0
2021-04-26 15:00:00-04:00,55151.5,0.0
2021-04-28 12:00:00-04:00,54906.5,-245.0
2021-04-30 13:53:00-04:00,54681.5,-470.0
2021-05-03 10:52:00-04:00,54537.5,-614.0
2021-05-06 16:00:00-04:00,54690.0,-461.5
2021-05-07 16:00:00-04:00,54617.0,-534.5
2021-05-13 11:25:00-04:00,54476.0,-675.5
2021-05-14 13:31:00-04:00,54904.0,-247.5
2021-05-17 20:20:00-04:00,54898.0,-253.5
2021-05-18 14:23:00-04:00,54681.0,-470.5
2021-05-19 16:00:00-04:00,55002.0,-149.5
2021-05-20 16:00:00-04:00,55176.5,0.0
2021-05-24 16:00:00-04:00,55270.0,0.0
2021-05-26 21:21:00-04:00,55025.5,-244.5
2021-05-27 14:25:00-04:00,54841.5,-428.5
2021-05-28 15:54:00-04:00,54637.5,-632.5
2021-05-31 18:28:00-04:00,54597.5,-672.5
2021-06-02 13:22:00-04:00,54411.5,-858.5
2021-06-03 20:09:00-04:00,54226.0,-1044.0
2021-06-04 16:00:00-04:00,54368.5,-901.5
2021-06-07 21:12:00-04:00,54738.5,-531.5
2021-06-09 09:50:00-04:00,54501.5,-768.5
2021-06-11 10:47:00-04:00,54258.5,-1011.5
2021-06-14 20:25:00-04:00,54720.5,-549.5
2021-06-15 10:25:00-04:00,54489.5,-780.5
2021-06-16 11:08:00-04:00,54287.0,-983.0
2021-06-17 21:46:00-04:00,54643.0,-627.0
2021-06-21 16:00:00-04:00,54759.0,-511.0
2021-06-22 16:00:00-04:00,54909.5,-360.5
2021-06-23 11:04:00-04:00,54685.5,-584.5
2021-06-24 13:20:00-04:00,54498.5,-771.5
2021-06-28 16:00:00-04:00,54587.0,-683.0
2021-06-29 16:00:00-04:00,54733.0,-537.0
2021-06-30 12:28:00-04:00,54539.0,-731.0
2021-07-01 10:20:00-04:00,54323.0,-947.0
2021-07-02 16:00:00-04:00,54505.0,-765.0
2021-07-05 21:35:00-04:00,54270.0,-1000.0
2021-07-06 10:33:00-04:00,54021.0,-1249.0
2021-07-08 11:01:00-04:00,53863.5,-1406.5
2021-07-09 16:00:00-04:00,54185.5,-1084.5
2021-07-13 11:20:00-04:00,54539.5,-730.5
2021-07-14 11:28:00-04:00,54306.5,-963.5
2021-07-19 16:24:00-04:00,54302.0,-968.0
2021-07-20 16:00:00-04:00,54465.5,-804.5
2021-07-21 16:00:00-04:00,54789.5,-480.5
2021-07-22 16:00:00-04:00,54877.5,-392.5
2021-07-23 16:00:00-04:00,55072.0,-198.0
2021-07-26 16:00:00-04:00,55153.0,-117.0
2021-07-29 16:04:00-04:00,54955.0,-315.0
2021-07-30 16:00:00-04:00,55023.0,-247.0
2021-08-02 15:35:00-04:00,54826.0,-444.0
2021-08-03 16:00:00-04:00,54870.0,-400.0
2021-08-04 16:00:00-04:00,54876.0,-394.0
2021-08-05 16:00:00-04:00,55030.0,-240.0
2021-08-09 16:00:00-04:00,54992.0,-278.0
2021-08-10 10:18:00-04:00,54750.5,-519.5
2021-08-12 16:00:00-04:00,55011.5,-258.5
2021-08-13 16:00:00-04:00,55143.5,-126.5
2021-08-16 16:00:00-04:00,55275.5,0.0
2021-08-17 11:42:00-04:00,55118.0,-157.5
2021-08-18 11:36:00-04:00,54916.0,-359.5
2021-08-19 16:00:00-04:00,55087.5,-188.0
2021-08-20 15:57:00-04:00,55453.5,0.0
2021-08-23 16:00:00-04:00,55682.0,0.0
2021-08-24 16:00:00-04:00,55689.0,0.0
2021-08-26 10:23:00-04:00,55467.0,-222.0
2021-08-27 16:00:00-04:00,55587.5,-101.5
2021-08-30 16:00:00-04:00,55737.0,0.0
2021-08-31 23:01:00-04:00,55732.0,-5.0
2021-09-01 15:43:00-04:00,55512.0,-225.0
2021-09-03 16:00:00-04:00,55565.5,-171.5
2021-09-06 10:00:00-04:00,55917.5,0.0
2021-09-07 16:00:00-04:00,55902.5,-15.0
2021-09-09 11:26:00-04:00,55686.5,-231.0
2021-09-15 16:00:00-04:00,55808.0,-109.5
2021-09-16 16:00:00-04:00,55842.5,-75.0
2021-09-21 10:06:00-04:00,55669.0,-248.5
2021-09-22 14:14:00-04:00,55920.0,0.0
2021-09-23 16:00:00-04:00,55987.5,0.0
2021-09-24 16:00:00-04:00,56271.5,0.0
2021-09-29 11:35:00-04:00,56103.0,-168.5
2021-09-30 10:07:00-04:00,55964.0,-307.5
2021-10-01 16:00:00-04:00,56023.5,-248.0
2021-10-05 13:40:00-04:00,56337.5,0.0
2021-10-07 16:00:00-04:00,56193.0,-144.5
2021-10-11 15:51:00-04:00,55958.0,-379.5
2021-10-13 16:00:00-04:00,55920.5,-417.0
2021-10-14 19:22:00-04:00,56165.5,-172.0
2021-10-15 16:00:00-04:00,56292.5,-45.0
2021-10-18 14:57:00-04:00,56583.5,0.0
2021-10-19 16:00:00-04:00,56813.5,0.0
2021-10-20 11:02:00-04:00,56588.5,-225.0
2021-10-21 16:00:00-04:00,56937.5,0.0
2021-10-22 10:50:00-04:00,56695.5,-242.0
2021-10-25 16:00:00-04:00,56822.0,-115.5
2021-10-26 12:00:00-04:00,56646.0,-291.5
2021-10-27 16:00:00-04:00,56571.5,-366.0
2021-10-28 16:31:00-04:00,56339.5,-598.0
2021-10-29 15:52:00-04:00,56617.5,-320.0
2021-11-01 14:14:00-04:00,56484.5,-453.0
2021-11-02 16:00:00-04:00,56489.0,-448.5
2021-11-03 15:46:00-04:00,56738.0,-199.5
2021-11-04 10:32:00-04:00,57150.0,0.0
2021-11-10 13:15:00-05:00,56949.0,-201.0
2021-11-12 16:00:00-05:00,57160.5,0.0
2021-11-16 16:00:00-05:00,57237.5,0.0
2021-11-17 11:57:00-05:00,57606.5,0.0
2021-11-18 10:10:00-05:00,57477.0,-129.5
2021-11-19 16:00:00-05:00,57466.0,-140.5
2021-11-22 11:12:00-05:00,57277.5,-329.0
2021-11-23 10:09:00-05:00,57057.0,-549.5
2021-11-24 16:00:00-05:00,57301.0,-305.5
2021-11-25 18:31:00-05:00,57077.0,-529.5
2021-11-29 15:16:00-05:00,57376.0,-230.5
2021-11-30 10:46:00-05:00,57147.0,-459.5
2021-12-01 12:55:00-05:00,56969.0,-637.5
2021-12-07 11:37:00-05:00,57222.0,-384.5
2021-12-08 16:00:00-05:00,57278.0,-328.5
2021-12-15 15:14:00-05:00,57630.0,0.0
2021-12-20 16:00:00-05:00,57564.5,-65.5
2021-12-21 16:00:00-05:00,57876.5,0.0
2021-12-22 18:00:00-05:00,58210.5,0.0
2021-12-23 16:00:00-05:00,58318.5,0.0
2021-12-27 16:00:00-05:00,58536.5,0.0
2021-12-30 15:45:00-05:00,58381.0,-155.5
2022-01-03 16:00:00-05:00,58370.5,-166.0
2022-01-12 10:39:00-05:00,58154.0,-382.5
2022-01-18 11:31:00-05:00,57906.0,-630.5
2022-01-19 10:32:00-05:00,57715.0,-821.5
2022-01-20 14:12:00-05:00,57514.0,-1022.5
2022-02-07 11:09:00-05:00,57269.5,-1267.0
2022-02-08 18:28:00-05:00,57644.5,-892.0
2022-02-09 16:00:00-05:00,57789.5,-747.0
2022-02-11 09:57:00-05:00,57568.0,-968.5
2022-02-14 13:53:00-05:00,57337.5,-1199.0
2022-02-15 12:47:00-05:00,57174.5,-1362.0
2022-02-16 16:00:00-05:00,57315.0,-1221.5
2022-02-28 14:08:00-05:00,57129.0,-1407.5
2022-03-01 10:45:00-05:00,56908.5,-1628.0
2022-03-02 10:08:00-05:00,56699.5,-1837.0
2022-03-09 16:00:00-05:00,56925.5,-1611.0
2022-03-10 21:50:00-05:00,56700.0,-1836.5
2022-03-17 15:59:00-04:00,57096.0,-1440.5
2022-03-18 12:30:00-04:00,57473.0,-1063.5
2022-03-23 14:15:00-04:00,57283.5,-1253.0
2022-03-24 15:25:00-04:00,57618.5,-918.0
2022-03-25 11:01:00-04:00,57457.0,-1079.5
2022-03-29 16:00:00-04:00,57483.5,-1053.0
2022-03-30 11:04:00-04:00,57243.5,-1293.0
2022-04-04 16:00:00-04:00,57558.0,-978.5
2022-04-07 10:40:00-04:00,57313.5,-1223.0
2022-04-08 14:25:00-04:00,57077.5,-1459.0
2022-04-12 10:48:00-04:00,56881.0,-1655.5
2022-04-13 15:32:00-04:00,57326.0,-1210.5
2022-04-18 11:48:00-04:00,57137.5,-1399.0
2022-04-19 11:15:00-04:00,57567.5,-969.0
2022-05-03 10:45:00-04:00,57318.5,-1218.0
2022-05-04 14:00:00-04:00,57192.0,-1344.5
2022-05-17 16:00:00-04:00,57221.0,-1315.5
2022-05-19 13:10:00-04:00,56972.5,-1564.0
2022-05-23 10:01:00-04:00,56731.5,-1805.0
2022-05-24 18:27:00-04:00,56730.5,-1806.0
2022-05-27 16:00:00-04:00,57048.0,-1488.5
2022-05-30 20:33:00-04:00,56920.5,-1616.0
2022-06-01 10:06:00-04:00,56747.0,-1789.5
2022-06-06 11:13:00-04:00,56539.5,-1997.0
2022-06-07 16:00:00-04:00,56862.5,-1674.0
2022-06-08 12:39:00-04:00,56657.5,-1879.0
2022-06-15 14:04:00-04:00,56476.5,-2060.0
2022-06-20 20:57:00-04:00,56920.5,-1616.0
2022-06-22 10:24:00-04:00,57257.5,-1279.0
2022-07-04 19:01:00-04:00,57589.5,-947.0
2022-07-06 16:00:00-04:00,57588.0,-948.5
2022-07-07 16:00:00-04:00,57806.0,-730.5
2022-07-08 16:00:00-04:00,57936.5,-600.0
2022-07-15 16:00:00-04:00,57970.5,-566.0
2022-07-18 13:33:00-04:00,57822.5,-714.0
2022-07-19 13:49:00-04:00,58151.5,-385.0
2022-07-20 11:35:00-04:00,58461.5,-75.0
2022-07-22 10:00:00-04:00,58273.5,-263.0
2022-07-26 18:10:00-04:00,58285.5,-251.0
2022-07-27 14:44:00-04:00,58684.5,0.0
2022-08-02 10:09:00-04:00,58479.5,-205.0
2022-08-03 16:00:00-04:00,58802.0,0.0
2022-08-04 10:17:00-04:00,58620.5,-181.5
2022-08-05 11:26:00-04:00,58392.0,-410.0
2022-08-10 16:00:00-04:00,58453.5,-348.5
2022-08-11 11:05:00-04:00,58322.5,-479.5
2022-08-12 16:00:00-04:00,58581.0,-221.0
2022-08-15 16:00:00-04:00,58706.5,-95.5
2022-08-16 14:45:00-04:00,58479.5,-322.5
2022-08-17 15:51:00-04:00,58284.0,-518.0
2022-08-18 16:00:00-04:00,58305.0,-497.0
2022-08-23 18:00:00-04:00,58089.0,-713.0
2022-08-24 16:00:00-04:00,58123.0,-679.0
2022-08-25 10:42:00-04:00,58515.0,-287.0
2022-08-26 10:12:00-04:00,58388.0,-414.0
2022-08-31 10:18:00-04:00,58177.5,-624.5
2022-09-01 16:00:00-04:00,58287.5,-514.5
2022-09-05 21:06:00-04:00,58625.5,-176.5
2022-09-07 10:15:00-04:00,58440.0,-362.0
2022-09-08 16:00:00-04:00,58630.0,-172.0
2022-09-09 16:00:00-04:00,58836.5,0.0
2022-09-12 12:10:00-04:00,58703.0,-133.5
2022-09-14 10:30:00-04:00,58504.0,-332.5
2022-09-15 10:29:00-04:00,58315.0,-521.5
2022-09-16 11:38:00-04:00,58153.0,-683.5
2022-09-19 16:00:00-04:00,58389.5,-447.0
2022-09-20 13:29:00-04:00,58242.0,-594.5
2022-09-21 13:59:00-04:00,58566.0,-270.5
2022-09-28 12:18:00-04:00,58886.0,0.0
2022-09-30 14:43:00-04:00,58665.0,-221.0
2022-10-03 14:28:00-04:00,59044.0,0.0
2022-10-04 16:00:00-04:00,59157.0,0.0
2022-10-05 20:12:00-04:00,59490.0,0.0
2022-10-11 14:52:00-04:00,59306.0,-184.0
2022-10-19 12:46:00-04:00,59070.0,-420.0
2022-10-20 13:49:00-04:00,58888.0,-602.0
2022-10-21 15:24:00-04:00,59358.0,-132.0
2022-10-24 10:02:00-04:00,59133.0,-357.0
2022-10-25 15:30:00-04:00,59404.0,-86.0
2022-10-26 16:08:00-04:00,59209.5,-280.5
2022-11-02 14:36:00-04:00,59038.5,-451.5
2022-11-03 11:29:00-04:00,58873.0,-617.0
2022-11-07 16:00:00-05:00,58944.5,-545.5
2022-11-08 14:10:00-05:00,58796.0,-694.0
2022-11-11 16:00:00-05:00,59106.5,-383.5
2022-11-14 16:00:00-05:00,59035.0,-455.0
2022-11-17 16:00:00-05:00,59143.5,-346.5
2022-11-21 10:06:00-05:00,59005.0,-485.0
2022-11-22 16:00:00-05:00,59223.0,-267.0
2022-11-23 12:57:00-05:00,58983.0,-507.0
2022-11-24 18:00:00-05:00,58935.5,-554.5
2022-11-28 10:25:00-05:00,58751.0,-739.0
2022-11-29 11:02:00-05:00,58543.0,-947.0
2022-11-30 14:11:00-05:00,58964.0,-526.0
2022-12-01 10:12:00-05:00,58801.0,-689.0
2022-12-02 16:00:00-05:00,58955.5,-534.5
2022-12-08 16:00:00-05:00,59088.0,-402.0
2022-12-09 16:00:00-05:00,58927.5,-562.5
2022-12-12 10:49:00-05:00,58696.5,-793.5
2022-12-14 14:00:00-05:00,58542.0,-948.0
2022-12-16 10:06:00-05:00,58376.5,-1113.5
2022-12-20 16:00:00-05:00,58426.5,-1063.5
2022-12-21 11:10:00-05:00,58684.5,-805.5
2022-12-29 16:00:00-05:00,58809.0,-681.0
2022-12-30 13:25:00-05:00,58667.5,-822.5
2023-01-04 14:02:00-05:00,58487.5,-1002.5
2023-01-09 11:14:00-05:00,58969.5,-520.5
2023-01-11 16:00:00-05:00,59184.5,-305.5
2023-01-13 15:35:00-05:00,59432.5,-57.5
2023-01-17 16:00:00-05:00,59426.5,-63.5
2023-01-18 10:37:00-05:00,59294.0,-196.0
2023-01-19 15:46:00-05:00,59167.5,-322.5
2023-01-20 13:50:00-05:00,59449.5,-40.5
2023-01-23 11:06:00-05:00,59774.5,0.0
2023-01-24 10:06:00-05:00,59624.5,-150.0
2023-01-25 14:17:00-05:00,59907.5,0.0
2023-01-26 16:00:00-05:00,59949.0,0.0
2023-01-27 13:38:00-05:00,60223.0,0.0
2023-01-30 10:23:00-05:00,60094.0,-129.0
2023-01-31 16:00:00-05:00,60298.5,0.0
2023-02-01 14:31:00-05:00,60150.5,-148.0
2023-02-02 13:34:00-05:00,60425.5,0.0
2023-02-06 10:20:00-05:00,60283.5,-142.0
2023-02-07 12:46:00-05:00,60757.5,0.0
2023-02-10 10:53:00-05:00,60575.0,-182.5
2023-02-13 16:00:00-05:00,60794.0,0.0
2023-02-15 09:54:00-05:00,60638.5,-155.5
2023-02-22 10:00:00-05:00,60412.5,-381.5
2023-02-27 10:36:00-05:00,60177.0,-617.0
2023-02-28 16:03:00-05:00,60040.5,-753.5
2023-03-01 10:05:00-05:00,59894.5,-899.5
2023-03-02 13:36:00-05:00,60338.5,-455.5
2023-03-03 12:55:00-05:00,60718.5,-75.5
2023-03-06 14:21:00-05:00,60519.5,-274.5
2023-03-08 13:28:00-05:00,60391.0,-403.0
2023-03-09 12:48:00-05:00,60241.5,-552.5
2023-03-14 14:08:00-04:00,60054.0,-740.0
2023-03-15 12:57:00-04:00,59870.0,-924.0
2023-03-16 11:26:00-04:00,60231.0,-563.0
2023-03-17 10:26:00-04:00,60065.0,-729.0
2023-03-20 16:00:00-04:00,60166.5,-627.5
2023-03-21 10:06:00-04:00,59960.5,-833.5
2023-03-22 14:00:00-04:00,60383.5,-410.5
2023-03-23 14:25:00-04:00,60256.5,-537.5
2023-03-24 16:00:00-04:00,60356.0,-438.0
2023-03-27 10:30:00-04:00,60222.5,-571.5
2023-03-28 20:50:00-04:00,60215.5,-578.5
2023-03-29 10:34:00-04:00,60044.5,-749.5
2023-03-30 10:12:00-04:00,59864.5,-929.5
2023-03-31 15:08:00-04:00,60119.5,-674.5
2023-04-03 10:51:00-04:00,59872.5,-921.5
2023-04-04 11:09:00-04:00,59705.0,-1089.0
2023-04-06 12:00:00-04:00,60173.0,-621.0
2023-04-10 16:00:00-04:00,60375.5,-418.5
2023-04-13 14:14:00-04:00,60621.5,-172.5
2023-04-14 10:29:00-04:00,60439.0,-355.0
2023-04-18 09:58:00-04:00,60193.0,-601.0
2023-04-19 16:00:00-04:00,60349.0,-445.0
2023-04-20 15:16:00-04:00,60209.5,-584.5
2023-04-21 10:41:00-04:00,59969.5,-824.5
2023-04-26 10:22:00-04:00,59839.5,-954.5
2023-04-27 11:25:00-04:00,60161.5,-632.5
2023-04-28 16:00:00-04:00,60319.5,-474.5
2023-05-01 10:01:00-04:00,60112.5,-681.5
2023-05-03 11:02:00-04:00,59936.5,-857.5
2023-05-04 12:07:00-04:00,59707.5,-1086.5
2023-05-05 13:22:00-04:00,60133.5,-660.5
2023-05-08 16:00:00-04:00,60250.5,-543.5
2023-05-09 10:29:00-04:00,60016.5,-777.5
2023-05-10 10:46:00-04:00,59812.5,-981.5
2023-05-11 16:00:00-04:00,59844.5,-949.5
2023-05-15 09:51:00-04:00,59639.0,-1155.0
2023-05-16 16:00:00-04:00,59592.0,-1202.0
2023-05-17 11:22:00-04:00,59348.0,-1446.0
2023-05-18 11:46:00-04:00,59599.0,-1195.0
2023-05-22 16:00:00-04:00,59557.0,-1237.0
2023-05-24 16:23:00-04:00,59993.0,-801.0
2023-05-25 16:00:00-04:00,60014.0,-780.0
2023-05-26 10:43:00-04:00,60326.0,-468.0
2023-05-29 18:00:00-04:00,60293.0,-501.0
2023-05-31 10:14:00-04:00,60136.5,-657.5
2023-06-01 12:19:00-04:00,60401.5,-392.5
2023-06-05 14:33:00-04:00,60227.0,-567.0
2023-06-06 16:00:00-04:00,60256.5,-537.5
2023-06-08 16:00:00-04:00,60437.5,-356.5
2023-06-09 11:28:00-04:00,60279.5,-514.5
2023-06-12 14:35:00-04:00,60741.5,-52.5
2023-06-14 11:27:00-04:00,61163.5,0.0
2023-06-15 14:35:00-04:00,61501.5,0.0
2023-06-19 21:53:00-04:00,61255.5,-246.0
2023-06-20 10:15:00-04:00,61046.5,-455.0
2023-06-22 16:36:00-04:00,61396.5,-105.0
2023-06-23 16:00:00-04:00,61317.5,-184.0
2023-06-26 11:06:00-04:00,61177.5,-324.0
2023-06-27 16:00:00-04:00,61416.5,-85.0
2023-06-28 16:00:00-04:00,61525.0,0.0
2023-06-30 16:00:00-04:00,61529.5,0.0
2023-07-03 10:32:00-04:00,61285.0,-244.5
2023-07-05 16:00:00-04:00,61227.5,-302.0
2023-07-06 16:00:00-04:00,61254.5,-275.0
2023-07-07 10:34:00-04:00,61128.5,-401.0
2023-07-11 16:00:00-04:00,61154.5,-375.0
2023-07-12 11:39:00-04:00,60941.5,-588.0
2023-07-13 16:00:00-04:00,61119.0,-410.5
2023-07-14 14:25:00-04:00,60944.5,-585.0
2023-07-17 16:00:00-04:00,61116.5,-413.0
2023-07-18 13:41:00-04:00,61379.5,-150.0
2023-07-19 10:55:00-04:00,61251.5,-278.0
2023-07-25 16:00:00-04:00,61252.5,-277.0
2023-07-26 15:08:00-04:00,61060.5,-469.0
2023-07-27 10:24:00-04:00,60899.5,-630.0
2023-07-28 16:00:00-04:00,60971.5,-558.0
2023-07-31 09:55:00-04:00,60728.5,-801.0
2023-08-01 10:14:00-04:00,60547.5,-982.0
2023-08-03 16:00:00-04:00,60536.0,-993.5
2023-08-04 14:01:00-04:00,60348.5,-1181.0
2023-08-07 16:00:00-04:00,60357.5,-1172.0
2023-08-08 21:12:00-04:00,60352.0,-1177.5
2023-08-10 11:20:00-04:00,60151.5,-1378.0
2023-08-11 11:25:00-04:00,59969.0,-1560.5
2023-08-14 15:59:00-04:00,60274.0,-1255.5
2023-08-16 11:50:00-04:00,60027.0,-1502.5
2023-08-18 16:00:00-04:00,60177.5,-1352.0
2023-08-21 11:10:00-04:00,59992.0,-1537.5
2023-08-23 10:23:00-04:00,60358.0,-1171.5
2023-08-25 10:08:00-04:00,60230.5,-1299.0
2023-08-29 11:19:00-04:00,60603.5,-926.0
2023-08-30 10:26:00-04:00,60445.0,-1084.5
2023-08-31 16:00:00-04:00,60414.0,-1115.5
2023-09-04 10:14:00-04:00,60164.0,-1365.5
2023-09-05 16:00:00-04:00,60215.5,-1314.0
2023-09-06 10:00:00-04:00,60016.5,-1513.0
2023-09-07 16:00:00-04:00,60042.5,-1487.0
2023-09-08 14:59:00-04:00,59855.0,-1674.5
2023-09-11 16:00:00-04:00,59905.0,-1624.5
2023-09-12 10:27:00-04:00,59773.5,-1756.0
2023-09-13 16:00:00-04:00,59775.5,-1754.0
2023-09-14 16:00:00-04:00,59839.0,-1690.5
2023-09-18 16:00:00-04:00,59801.5,-1728.0
2023-09-19 16:00:00-04:00,59835.5,-1694.0
2023-09-20 10:14:00-04:00,59591.5,-1938.0
2023-09-22 14:12:00-04:00,59365.5,-2164.0
2023-09-25 16:00:00-04:00,59511.5,-2018.0
2023-09-27 10:01:00-04:00,59316.5,-2213.0
2023-09-28 11:48:00-04:00,59619.5,-1910.0
2023-09-29 10:24:00-04:00,59404.5,-2125.0
2023-10-03 10:02:00-04:00,59267.5,-2262.0
2023-10-04 16:00:00-04:00,59388.5,-2141.0
2023-10-06 11:43:00-04:00,59805.5,-1724.0
2023-10-09 20:29:00-04:00,60156.5,-1373.0
2023-10-10 11:07:00-04:00,60556.5,-973.0
2023-10-11 16:02:00-04:00,60558.5,-971.0
2023-10-12 13:08:00-04:00,60319.5,-1210.0
2023-10-16 16:00:00-04:00,60365.5,-1164.0
2023-10-17 16:00:00-04:00,60479.5,-1050.0
2023-10-18 10:35:00-04:00,60325.5,-1204.0
2023-10-19 12:31:00-04:00,60136.5,-1393.0
2023-10-23 16:00:00-04:00,60310.0,-1219.5
2023-10-24 12:21:00-04:00,60154.0,-1375.5
2023-10-27 10:09:00-04:00,59948.0,-1581.5
2023-10-30 10:28:00-04:00,59718.5,-1811.0
2023-10-31 16:00:00-04:00,59806.5,-1723.0
2023-11-01 15:00:00-04:00,60262.5,-1267.0
2023-11-02 16:00:00-04:00,60420.5,-1109.0
2023-11-03 16:00:00-04:00,60569.5,-960.0
2023-11-07 16:00:00-05:00,60734.0,-795.5
2023-11-09 10:07:00-05:00,60496.0,-1033.5
2023-11-10 13:25:00-05:00,60806.0,-723.5
2023-11-13 16:00:00-05:00,60827.0,-702.5
2023-11-14 16:00:00-05:00,60900.5,-629.0
2023-11-16 10:41:00-05:00,60693.5,-836.0
2023-11-17 16:00:00-05:00,60762.5,-767.0
2023-11-20 16:00:00-05:00,60957.5,-572.0
2023-11-23 18:00:00-05:00,60909.5,-620.0
2023-11-27 16:00:00-05:00,60835.0,-694.5
2023-11-28 16:00:00-05:00,60978.0,-551.5
2023-12-01 10:26:00-05:00,60841.5,-688.0
2023-12-04 21:10:00-05:00,60631.5,-898.0
2023-12-05 16:00:00-05:00,60748.5,-781.0
2023-12-07 16:00:00-05:00,60826.0,-703.5
2023-12-08 16:00:00-05:00,60952.5,-577.0
2023-12-11 16:00:00-05:00,61109.0,-420.5
2023-12-12 18:09:00-05:00,61391.0,-138.5
2023-12-13 14:42:00-05:00,61815.0,0.0
2023-12-14 10:05:00-05:00,61598.0,-217.0
2023-12-15 13:41:00-05:00,61461.0,-354.0
2023-12-18 16:00:00-05:00,61642.0,-173.0
2023-12-19 16:00:00-05:00,61753.0,-62.0
2023-12-20 14:39:00-05:00,61542.0,-273.0
2023-12-21 22:42:00-05:00,61293.0,-522.0
2023-12-22 11:00:00-05:00,61080.0,-735.0
2023-12-26 16:00:00-05:00,61212.0,-603.0
2023-12-27 10:11:00-05:00,61014.0,-801.0
2023-12-29 10:34:00-05:00,60807.0,-1008.0
2024-01-04 15:55:00-05:00,60675.0,-1140.0
2024-01-05 13:16:00-05:00,60548.5,-1266.5
2024-01-08 14:11:00-05:00,60873.5,-941.5
2024-01-09 12:53:00-05:00,61351.5,-463.5
2024-01-10 14:13:00-05:00,61798.5,-16.5
2024-01-12 10:00:00-05:00,61662.0,-153.0
2024-01-15 18:05:00-05:00,61440.0,-375.0
2024-01-16 14:19:00-05:00,61282.5,-532.5
2024-01-17 16:00:00-05:00,61326.5,-488.5
2024-01-18 12:13:00-05:00,61192.0,-623.0
2024-01-19 12:31:00-05:00,61542.0,-273.0
2024-01-23 16:00:00-05:00,61657.0,-158.0
2024-01-24 14:23:00-05:00,61521.0,-294.0
2024-01-25 12:08:00-05:00,61295.0,-520.0
2024-01-26 12:49:00-05:00,61085.0,-730.0
2024-01-29 15:20:00-05:00,61547.0,-268.0
2024-01-31 15:01:00-05:00,61392.5,-422.5
2024-02-01 10:54:00-05:00,61189.5,-625.5
2024-02-05 15:13:00-05:00,60989.5,-825.5
2024-02-07 16:00:00-05:00,61055.0,-760.0
2024-02-08 16:00:00-05:00,61067.0,-748.0
2024-02-09 10:35:00-05:00,61508.0,-307.0
2024-02-12 13:39:00-05:00,61319.0,-496.0
2024-02-14 11:00:00-05:00,61149.0,-666.0
2024-02-15 16:00:00-05:00,61161.5,-653.5
2024-02-21 10:31:00-05:00,61023.0,-792.0
2024-02-22 14:14:00-05:00,61292.0,-523.0
2024-02-26 13:34:00-05:00,61163.5,-651.5
2024-02-27 12:54:00-05:00,60978.5,-836.5
2024-02-28 12:39:00-05:00,60766.5,-1048.5
2024-02-29 16:00:00-05:00,60725.5,-1089.5
2024-03-01 12:19:00-05:00,61159.5,-655.5
2024-03-04 15:36:00-05:00,60934.5,-880.5
2024-03-06 13:33:00-05:00,60693.5,-1121.5
2024-03-07 16:16:00-05:00,60555.5,-1259.5
2024-03-08 11:08:00-05:00,60418.0,-1397.0
2024-03-11 16:00:00-04:00,60357.0,-1458.0
2024-03-18 11:53:00-04:00,60204.0,-1611.0
2024-03-19 16:00:00-04:00,60432.5,-1382.5
2024-03-20 19:07:00-04:00,60853.5,-961.5
2024-03-22 10:40:00-04:00,60668.5,-1146.5
2024-03-25 16:00:00-04:00,60685.5,-1129.5
2024-03-26 10:29:00-04:00,60463.5,-1351.5
2024-03-28 13:17:00-04:00,60221.5,-1593.5
2024-04-02 16:00:00-04:00,60274.5,-1540.5
2024-04-03 19:31:00-04:00,60598.5,-1216.5
2024-04-05 11:55:00-04:00,60931.5,-883.5
2024-04-08 16:00:00-04:00,60854.5,-960.5
2024-04-10 13:10:00-04:00,60685.5,-1129.5
2024-04-11 13:19:00-04:00,60937.5,-877.5
2024-04-16 10:37:00-04:00,60809.5,-1005.5
2024-04-19 09:52:00-04:00,60652.5,-1162.5
2024-04-22 10:09:00-04:00,60407.5,-1407.5
2024-04-23 20:38:00-04:00,60811.5,-1003.5
2024-04-24 09:56:00-04:00,60658.5,-1156.5
2024-04-25 15:24:00-04:00,61052.5,-762.5
2024-04-26 16:00:00-04:00,61175.0,-640.0
2024-05-01 14:32:00-04:00,61048.0,-767.0
2024-05-02 18:16:00-04:00,61404.0,-411.0
2024-05-03 10:13:00-04:00,61258.0,-557.0
2024-05-06 16:00:00-04:00,61621.0,-194.0
2024-05-07 13:50:00-04:00,61453.0,-362.0
2024-05-08 16:00:00-04:00,61499.5,-315.5
2024-05-09 16:00:00-04:00,61510.0,-305.0
2024-05-10 10:19:00-04:00,61340.5,-474.5
2024-05-14 15:54:00-04:00,61784.5,-30.5
2024-05-15 12:32:00-04:00,62114.5,0.0
2024-05-16 13:25:00-04:00,61904.5,-210.0
2024-05-17 11:04:00-04:00,61699.0,-415.5
2024-05-20 16:00:00-04:00,61814.5,-300.0
2024-05-21 15:55:00-04:00,62140.5,0.0
2024-05-22 13:37:00-04:00,61891.5,-249.0
2024-05-24 09:54:00-04:00,61693.5,-447.0
2024-05-27 18:00:00-04:00,61818.0,-322.5
2024-05-28 14:30:00-04:00,61676.5,-464.0
2024-05-29 16:46:00-04:00,61527.5,-613.0
2024-06-04 10:14:00-04:00,61367.0,-773.5
2024-06-05 10:00:00-04:00,61185.0,-955.5
2024-06-07 16:00:00-04:00,61144.0,-996.5
2024-06-10 16:00:00-04:00,61423.0,-717.5
2024-06-11 14:04:00-04:00,61761.0,-379.5
2024-06-12 16:00:00-04:00,61765.0,-375.5
2024-06-14 16:00:00-04:00,62054.0,-86.5
2024-06-17 12:29:00-04:00,62442.0,0.0
2024-06-18 14:02:00-04:00,62268.0,-174.0
2024-06-19 23:59:00-04:00,62643.0,0.0
2024-06-21 13:19:00-04:00,62395.0,-248.0
2024-06-24 10:29:00-04:00,62192.0,-451.0
2024-06-25 11:55:00-04:00,62628.0,-15.0
2024-06-26 11:11:00-04:00,62381.0,-262.0
2024-06-27 11:28:00-04:00,62134.5,-508.5
2024-06-28 10:14:00-04:00,62422.5,-220.5
2024-07-01 16:00:00-04:00,62540.5,-102.5
2024-07-02 16:00:00-04:00,62844.0,0.0
2024-07-03 11:55:00-04:00,63258.0,0.0
2024-07-04 20:49:00-04:00,63215.5,-42.5
2024-07-05 13:39:00-04:00,63463.5,0.0
2024-07-08 10:01:00-04:00,63272.5,-191.0
2024-07-10 11:00:00-04:00,63052.5,-411.0
2024-07-12 10:36:00-04:00,63514.5,0.0
2024-07-15 13:01:00-04:00,63364.5,-150.0
2024-07-22 11:16:00-04:00,63129.5,-385.0
2024-07-23 10:51:00-04:00,62907.0,-607.5
2024-07-26 10:31:00-04:00,62705.5,-809.0
2024-07-31 16:05:00-04:00,63145.5,-369.0
2024-08-07 10:19:00-04:00,62924.5,-590.0
2024-08-09 10:35:00-04:00,62717.0,-797.5
2024-08-12 16:00:00-04:00,62673.5,-841.0
2024-08-13 13:01:00-04:00,63021.5,-493.0
2024-08-15 12:17:00-04:00,63313.5,-201.0
2024-08-16 16:00:00-04:00,63405.5,-109.0
2024-08-19 10:19:00-04:00,63245.0,-269.5
2024-08-20 10:17:00-04:00,63110.0,-404.5
2024-08-21 10:41:00-04:00,63492.0,-22.5
2024-08-23 10:48:00-04:00,63264.0,-250.5
2024-08-27 16:00:00-04:00,63461.5,-53.0
2024-08-30 10:57:00-04:00,63320.5,-194.0
2024-09-02 10:02:00-04:00,63124.0,-390.5
2024-09-04 10:00:00-04:00,62905.0,-609.5
2024-09-09 10:30:00-04:00,62725.0,-789.5
2024-09-10 16:00:00-04:00,62764.0,-750.5
2024-09-11 14:29:00-04:00,63185.0,-329.5
2024-09-12 14:00:00-04:00,63528.0,0.0
2024-09-13 16:00:00-04:00,63555.0,0.0
2024-09-17 10:59:00-04:00,63384.0,-171.0
2024-09-19 16:00:00-04:00,63380.5,-174.5
2024-09-23 13:01:00-04:00,63239.0,-316.0
2024-09-24 16:00:00-04:00,63254.5,-300.5
2024-09-25 13:00:00-04:00,63085.0,-470.0
2024-09-30 16:00:00-04:00,63027.5,-527.5
2024-10-03 13:00:00-04:00,62789.0,-766.0
2024-10-04 16:00:00-04:00,62718.0,-837.0
2024-10-07 14:04:00-04:00,62590.5,-964.5
2024-10-08 10:35:00-04:00,62974.5,-580.5
2024-10-09 11:50:00-04:00,63228.5,-326.5
2024-10-10 16:00:00-04:00,63344.5,-210.5
2024-10-11 16:00:00-04:00,63461.0,-94.0
2024-10-14 11:01:00-04:00,63307.5,-247.5
2024-10-16 16:00:00-04:00,63261.0,-294.0
2024-10-18 16:00:00-04:00,63212.5,-342.5
2024-10-21 10:40:00-04:00,63073.0,-482.0
2024-10-22 16:00:00-04:00,63179.0,-376.0
2024-10-24 16:00:00-04:00,63198.5,-356.5
2024-10-25 13:44:00-04:00,62988.5,-566.5
2024-10-29 15:22:00-04:00,63386.5,-168.5
2024-11-01 16:00:00-04:00,63373.0,-182.0
2024-11-05 21:19:00-05:00,63783.0,0.0
2024-11-07 16:00:00-05:00,64030.0,0.0
2024-11-08 16:00:00-05:00,64050.0,0.0
2024-11-12 10:08:00-05:00,63916.5,-133.5
2024-11-13 15:54:00-05:00,63717.5,-332.5
2024-11-18 11:39:00-05:00,63984.5,-65.5
2024-11-19 13:56:00-05:00,64361.5,0.0
2024-11-20 16:20:00-05:00,64111.5,-250.0
2024-11-22 10:10:00-05:00,63919.5,-442.0
2024-11-26 10:00:00-05:00,63780.5,-581.0
2024-11-28 19:05:00-05:00,63550.5,-811.0
2024-11-29 13:14:00-05:00,63771.0,-590.5
2024-12-02 16:00:00-05:00,63915.5,-446.0
2024-12-03 21:59:00-05:00,64185.5,-176.0
2024-12-04 15:50:00-05:00,64601.5,0.0
2024-12-05 13:21:00-05:00,64367.5,-234.0
2024-12-06 16:00:00-05:00,64535.0,-66.5
2024-12-09 10:26:00-05:00,64406.5,-195.0
2024-12-10 10:58:00-05:00,64239.5,-362.0
2024-12-11 15:17:00-05:00,64563.5,-38.0
2024-12-12 15:13:00-05:00,64383.5,-218.0
2024-12-13 10:40:00-05:00,64155.5,-446.0
2024-12-16 12:40:00-05:00,64403.5,-198.0
2024-12-17 14:32:00-05:00,64226.5,-375.0
2024-12-18 14:01:00-05:00,64033.5,-568.0
2024-12-23 16:00:00-05:00,64201.0,-400.5
2024-12-24 12:59:00-05:00,64510.0,-91.5
2024-12-26 19:20:00-05:00,64284.0,-317.5
2025-01-06 13:45:00-05:00,64066.0,-535.5
2025-01-08 10:12:00-05:00,63855.0,-746.5
2025-01-13 18:32:00-05:00,64332.0,-269.5
2025-01-22 16:00:00-05:00,64355.0,-246.5
2025-01-23 15:58:00-05:00,64793.0,0.0
2025-01-24 10:16:00-05:00,64569.0,-224.0
2025-01-29 20:15:00-05:00,64574.0,-219.0
2025-01-30 10:02:00-05:00,64420.0,-373.0
2025-01-31 13:34:00-05:00,64264.0,-529.0
2025-02-05 10:03:00-05:00,64119.0,-674.0
2025-02-06 14:33:00-05:00,63974.5,-818.5
2025-02-10 16:00:00-05:00,64029.5,-763.5
2025-02-11 16:00:00-05:00,63969.0,-824.0
2025-02-13 16:00:00-05:00,64248.5,-544.5
2025-02-14 16:00:00-05:00,64421.5,-371.5
2025-02-17 18:00:00-05:00,64358.5,-434.5
2025-02-18 19:36:00-05:00,64358.5,-434.5
2025-02-19 20:42:00-05:00,64149.5,-643.5
2025-02-26 13:29:00-05:00,63967.5,-825.5
2025-03-24 16:00:00-04:00,64106.5,-686.5
2025-03-25 16:00:00-04:00,64234.5,-558.5
2025-04-01 10:07:00-04:00,64035.0,-758.0
2025-04-24 11:11:00-04:00,64509.0,-284.0
2025-04-25 10:23:00-04:00,64265.5,-527.5
2025-04-28 09:58:00-04:00,64023.5,-769.5
2025-04-29 16:00:00-04:00,64283.5,-509.5
2025-05-01 15:56:00-04:00,64068.0,-725.0
2025-05-02 16:00:00-04:00,64183.0,-610.0
2025-05-05 20:24:00-04:00,64017.5,-775.5
2025-05-06 18:01:00-04:00,64371.5,-421.5
2025-05-07 10:54:00-04:00,64150.5,-642.5
2025-05-08 20:28:00-04:00,63953.5,-839.5
2025-05-13 12:35:00-04:00,64407.5,-385.5
2025-05-14 13:21:00-04:00,64212.0,-581.0
2025-05-15 13:18:00-04:00,64523.0,-270.0
2025-05-16 16:54:00-04:00,64355.0,-438.0
2025-05-20 11:00:00-04:00,64142.0,-651.0
2025-05-21 13:24:00-04:00,63943.5,-849.5
2025-05-27 13:48:00-04:00,64310.5,-482.5
2025-05-28 19:15:00-04:00,64648.5,-144.5
2025-05-30 11:41:00-04:00,64443.0,-350.0
2025-06-03 16:00:00-04:00,64604.5,-188.5
2025-06-04 18:00:00-04:00,64438.0,-355.0
2025-06-05 12:47:00-04:00,64192.5,-600.5
2025-06-06 10:32:00-04:00,64008.0,-785.0
2025-06-09 21:30:00-04:00,64270.0,-523.0
2025-06-10 11:32:00-04:00,64123.5,-669.5
2025-06-11 12:07:00-04:00,63987.5,-805.5
2025-06-12 19:59:00-04:00,63842.0,-951.0
2025-06-16 19:59:00-04:00,63665.0,-1128.0
2025-06-17 12:59:00-04:00,63494.0,-1299.0
2025-06-18 14:57:00-04:00,63337.5,-1455.5
2025-06-19 18:01:00-04:00,63366.0,-1427.0
2025-06-24 16:00:00-04:00,63501.5,-1291.5
2025-06-26 16:00:00-04:00,63661.5,-1131.5
2025-06-27 14:19:00-04:00,63533.5,-1259.5
2025-06-30 16:00:00-04:00,63539.0,-1254.0
2025-07-01 10:22:00-04:00,63406.0,-1387.0
2025-07-02 21:25:00-04:00,63688.0,-1105.0
2025-07-03 18:00:00-04:00,63772.0,-1021.0
2025-07-08 12:35:00-04:00,63532.0,-1261.0
2025-07-09 10:36:00-04:00,63334.5,-1458.5
2025-07-11 16:00:00-04:00,63313.0,-1480.0
2025-07-16 16:00:00-04:00,63252.0,-1541.0
2025-07-17 14:00:00-04:00,63533.0,-1260.0
2025-07-21 16:00:00-04:00,63483.0,-1310.0
2025-07-23 16:00:00-04:00,63557.0,-1236.0
2025-07-24 16:00:00-04:00,63489.5,-1303.5
2025-07-25 16:00:00-04:00,63626.5,-1166.5
2025-07-28 11:19:00-04:00,63405.5,-1387.5
2025-07-30 14:56:00-04:00,63262.0,-1531.0
2025-08-05 10:17:00-04:00,63106.0,-1687.0
2025-08-06 14:08:00-04:00,63453.0,-1340.0
2025-08-07 10:10:00-04:00,63314.0,-1479.0
2025-08-08 16:00:00-04:00,63501.0,-1292.0
2025-08-11 14:04:00-04:00,63259.0,-1534.0
2025-08-12 16:00:00-04:00,63504.0,-1289.0
2025-08-14 16:00:00-04:00,63478.5,-1314.5
2025-08-18 10:30:00-04:00,63263.5,-1529.5
2025-08-21 11:55:00-04:00,63066.5,-1726.5
2025-08-25 20:03:00-04:00,62914.0,-1879.0
2025-08-26 16:00:00-04:00,63187.0,-1606.0
2025-08-27 16:20:00-04:00,63609.0,-1184.0
2025-08-28 16:00:00-04:00,63618.5,-1174.5
2025-09-01 19:20:00-04:00,63441.5,-1351.5
2025-09-03 13:45:00-04:00,63264.0,-1529.0
2025-09-04 23:58:00-04:00,63642.0,-1151.0
2025-09-08 13:52:00-04:00,63481.5,-1311.5
2025-09-09 16:00:00-04:00,63478.5,-1314.5
2025-09-11 16:00:00-04:00,63491.5,-1301.5
2025-09-12 16:00:00-04:00,63548.0,-1245.0
2025-09-15 22:31:00-04:00,64002.0,-791.0
2025-09-17 15:51:00-04:00,63840.0,-953.0
2025-09-18 16:00:00-04:00,63806.5,-986.5
2025-09-19 10:47:00-04:00,63573.5,-1219.5
2025-09-22 12:11:00-04:00,63931.5,-861.5
2025-09-29 11:36:00-04:00,63765.5,-1027.5
2025-09-30 13:24:00-04:00,63578.5,-1214.5
2025-10-01 20:45:00-04:00,63986.5,-806.5
2025-10-06 16:00:00-04:00,63896.0,-897.0
2025-10-08 15:51:00-04:00,64229.0,-564.0
2025-10-09 20:02:00-04:00,64222.5,-570.5
2025-10-10 10:57:00-04:00,64036.5,-756.5
2025-10-15 11:49:00-04:00,63854.0,-939.0
2025-10-16 09:50:00-04:00,63675.5,-1117.5
2025-10-20 16:00:00-04:00,63815.5,-977.5
2025-10-21 16:03:00-04:00,63654.5,-1138.5
2025-10-22 10:27:00-04:00,63449.0,-1344.0
2025-10-23 16:00:00-04:00,63713.5,-1079.5
2025-10-24 16:00:00-04:00,63656.0,-1137.0
2025-10-27 16:44:00-04:00,63954.0,-839.0
2025-10-28 16:00:00-04:00,64025.0,-768.0
2025-10-29 10:50:00-04:00,63847.0,-946.0
2025-11-05 12:45:00-05:00,64297.0,-496.0
2025-11-10 10:59:00-05:00,64058.0,-735.0
2025-11-11 16:00:00-05:00,64071.5,-721.5
2025-11-20 11:00:00-05:00,63834.0,-959.0
2025-11-26 09:58:00-05:00,63664.5,-1128.5
2025-11-27 18:08:00-05:00,63684.0,-1109.0
2025-11-28 13:14:00-05:00,63799.5,-993.5
2025-12-01 16:00:00-05:00,63968.0,-825.0
2025-12-03 16:00:00-05:00,64147.0,-646.0
2025-12-09 16:00:00-05:00,64198.0,-595.0
2025-12-10 10:40:00-05:00,63996.0,-797.0
2025-12-11 16:53:00-05:00,64389.0,-404.0
2025-12-23 10:03:00-05:00,64182.5,-610.5
2025-12-24 13:14:00-05:00,64304.5,-488.5
2025-12-30 15:59:00-05:00,64178.0,-615.0
2026-01-02 10:12:00-05:00,63934.0,-859.0
2026-01-06 16:00:00-05:00,64197.0,-596.0
2026-01-07 22:46:00-05:00,63994.5,-798.5
2026-01-19 18:00:00-05:00,64092.0,-701.0
2026-01-21 10:37:00-05:00,64519.0,-274.0
2026-01-23 16:00:00-05:00,64636.5,-156.5
2026-01-27 16:00:00-05:00,64720.5,-72.5
2026-02-16 20:52:00-05:00,64580.0,-213.0
2026-02-18 12:06:00-05:00,65069.0,0.0
